dose,RR,lb,ub
0,1,1,1
0.07307307307307308,0.9962623599235153,0.9946878225531268,0.9978393897019483
0.14614614614614616,0.9925393575093377,0.989404823913979,0.9956838216211271
0.21921921921921922,0.9888315982718375,0.9841517933666184,0.9935336564250806
0.2922922922922923,0.9851396780405225,0.9789295008825086,0.991389251600728
0.3653653653653654,0.9814641830628195,0.9737386974022201,0.9892509614797316
0.43843843843843844,0.9778056901103448,0.9685801151228232,0.9871191372650951
0.5115115115115115,0.9741647665885553,0.9634544677906586,0.9849941270589806
0.5845845845845846,0.9705419706496747,0.9583624509991909,0.9828762758917287
0.6576576576576577,0.9669378513087925,0.9533047424916512,0.9807659257520717
0.7307307307307308,0.9633529485630329,0.9482820024681866,0.9786634156185244
0.8038038038038039,0.9597877935136953,0.9432948738972434,0.9765690814919413
0.8768768768768769,0.9562429084912691,0.9383439828309149,0.9744832564292281
0.94994994994995,0.9527188071832283,0.9334299387239949,0.9724062705781954
1.023023023023023,0.9492159947645122,0.9285533347564875,0.970338451213545
1.0960960960960962,0.9457349680306035,0.9237147481593285,0.9682801227739757
1.1691691691691692,0.9422762155331149,0.9189147405430846,0.9662316069004004
1.2422422422422423,0.9388402177177982,0.9141538582294025,0.9641932224752636
1.3153153153153154,0.9354274470648948,0.9094326325849905,0.9621652856629506
1.3883883883883885,0.9320383682317436,0.9047515803579209,0.9601481099512797
1.4614614614614616,0.9286734381975713,0.9001112040160505,0.9581420061940698
1.5345345345345347,0.9253331064103877,0.895511992087365,0.9561472826547743
1.6076076076076078,0.9220178149359121,0.8909544195020601,0.9541642450511781
1.6806806806806809,0.9187279986084619,0.8864389479361815,0.9521931966011464
1.7537537537537538,0.9154640851837335,0.8819660261566515,0.9502344380694256
1.8268268268268268,0.912226495493411,0.8775360903675198,0.9482882678154871
1.8998998998999,0.9090156436015389,0.873149564557284,0.9463549818424136
1.972972972972973,0.905831936962599,0.8688068608471315,0.9444348738468219
2.046046046046046,0.9026757765812339,0.8645083798399631,0.9425282352698224
2.1191191191191194,0.8995475571735602,0.8602545109700656,0.9406353553490137
2.1921921921921923,0.8964476673300215,0.8560456328533105,0.9387565211715092
2.2652652652652656,0.8933764896797294,0.8518821136377597,0.9368920177280018
2.3383383383383385,0.8903344010562463,0.8477643113545688,0.9350421279678618
2.4114114114114114,0.8873217726647651,0.8436925742690862,0.9332071328552762
2.4844844844844847,0.8843389702506438,0.8396672412320519,0.9313873114264306
2.5575575575575575,0.881386354269257,0.8356886420308091,0.9295829408477382
2.630630630630631,0.8784642800571267,0.8317570977404438,0.9277942964751239
2.7037037037037037,0.8755730980042994,0.8278729210747844,0.9260216519143697
2.776776776776777,0.8727131537279386,0.8240364167371871,0.9242652790825304
2.84984984984985,0.8698847882471042,0.8202478817710509,0.9225254482704299
2.922922922922923,0.8670883381586943,0.8165076059100069,0.9208024282062501
2.995995995995996,0.8643241358145253,0.8128158719277334,0.9190964861202241
3.0690690690690694,0.8615925094995314,0.8091729559873572,0.9174078878104506
3.1421421421421423,0.8588937836110669,0.8055791279904044,0.915736897709844
3.2152152152152156,0.856228278839296,0.8020346519252742,0.91408377895424
3.2882882882882885,0.8535963123486578,0.7985397862152109,0.9124487934516747
3.3613613613613618,0.8509981979604013,0.7950947840657584,0.9108322019528623
3.4344344344344346,0.848434246336179,0.7916998938116865,0.9092342641228915
3.5075075075075075,0.8459047651627022,0.788355359263383,0.907655238614171
3.580580580580581,0.8434100593374518,0.785061420052712,0.906095383140649
3.6536536536536537,0.8409504311554522,0.7818183119783446,0.9045549545533405
3.726726726726727,0.8385261804971099,0.7786262673505724,0.903034208917194
3.7997997997998,0.8361376050171283,0.7754855153356193,0.901533401589335
3.872872872872873,0.8337850003345062,0.7723962822994728,0.9000527872987241
3.945945945945946,0.8314686601574787,0.7693587920631499,0.8985926201871839
4.019019019019019,0.8291887219480205,0.7663730606951629,0.897153060132521
4.092092092092092,0.8269448395023372,0.7634384628221444,0.8957339731766404
4.165165165165165,0.8247365776965084,0.7605542593120351,0.8943351697297969
4.238238238238239,0.8225635078234768,0.757719724273014,0.892956462301453
4.311311311311312,0.8204252074694532,0.7549341447646067,0.8915976654641464
4.384384384384385,0.8183212603926757,0.7521968205149591,0.8902585958183268
4.4574574574574575,0.8162512564044712,0.7495070636441663,0.8889390719580893
4.530530530530531,0.8142147912525682,0.7468641983935459,0.8876389144377445
4.603603603603604,0.8122114665066129,0.7442675608607355,0.8863579457391679
4.676676676676677,0.810240889445837,0.7417164987404994,0.8850959902398828
4.74974974974975,0.808302672948835,0.739210371071124,0.8838528741818317
4.822822822822823,0.8063964353853994,0.736748547986283,0.8826284256408002
4.8958958958958965,0.8045218005103736,0.7343304104722532,0.8814224744964583
4.968968968968969,0.8026783973594762,0.731955350130362,0.8802348524029889
5.042042042042042,0.800865860147054,0.7296227689445497,0.8790653927602758
5.115115115115115,0.7990838281657222,0.7273320790539307,0.8779139306856271
5.188188188188189,0.7973319456878528,0.7250827025302378,0.8767803029860104
5.261261261261262,0.7956098618688672,0.7228740711600381,0.87566434813078
5.334334334334335,0.7939172306522979,0.7207056262316088,0.8745659062248764
5.407407407407407,0.7922537106765808,0.7185768183263639,0.8734848189824814
5.480480480480481,0.7906189651835386,0.7164871071147255,0.8724209297011126
5.553553553553554,0.7890126619285219,0.7144359611563336,0.8713740832361417
5.626626626626627,0.7874344730921709,0.7124228577044935,0.8703441259757236
5.6996996996997,0.7858840751937645,0.7104472825147589,0.869330905816123
5.772772772772774,0.7843611490061217,0.7085087296575527,0.8683342721374263
5.845845845845846,0.7828653794720243,0.7066067013347316,0.8673540757796264
5.918918918918919,0.7813964556221253,0.7047407076999961,0.8663901690190722
5.991991991991992,0.7799540704943173,0.7029102666830603,0.8654424055452694
6.065065065065065,0.7785379210545238,0.7011149038174869,0.8645106404380251
6.138138138138139,0.777147708118889,0.6993541520721037,0.8635947301449259
6.211211211211212,0.7757831362773329,0.6976275516859142,0.8626945324591409
6.2842842842842845,0.774443913818446,0.6959346500064209,0.8618099064975412
6.357357357357357,0.7731297526556941,0.69427500133128,0.8609407126791279
6.430430430430431,0.7718403682549064,0.6926481667532085,0.86008681270376
6.503503503503504,0.7705754795630217,0.6910537140080669,0.859248069531176
6.576576576576577,0.7693348089380633,0.6894912173260418,0.8584243473603002
6.64964964964965,0.7681180820803222,0.6879602572858587,0.8576155116088278
6.7227227227227235,0.7669250279647196,0.6864604206719491,0.8568214288930824
6.795795795795796,0.7657553787743274,0.6849913003345075,0.8560419670081375
6.868868868868869,0.7646088698350209,0.6835524950523669,0.8552769949081959
6.941941941941942,0.7634852395512425,0.6821436093986308,0.8545263826872234
7.015015015015015,0.7623842293428542,0.6807642536089956,0.8537900015598253
7.088088088088089,0.7613055835830543,0.6794140434527018,0.8530677238423662
7.161161161161162,0.7602490495373403,0.6780926001060545,0.8523594229343201
7.2342342342342345,0.7592143773034946,0.6767995500284524,0.8516649732998509
7.307307307307307,0.7582013197525739,0.6755345248408704,0.8509842504496148
7.380380380380381,0.7572096324708821,0.6742971612067393,0.8503171309227778
7.453453453453454,0.7562390737029077,0.6730871007151676,0.8496634922692471
7.526526526526527,0.7552894042952042,0.6719039897664533,0.8490232130321046
7.5995995995996,0.7543603876412004,0.6707474794598353,0.8483961727302439
7.6726726726726735,0.753451789626916,0.6696172254834345,0.8477822518411998
7.745745745745746,0.7525633785775699,0.6685128880063342,0.8471813317841683
7.818818818818819,0.7516949252050615,0.6674341315727559,0.8465932949032117
7.891891891891892,0.7508462025563092,0.6663806249982824,0.8460180244506406
7.964964964964966,0.750016985962428,0.6653520412680847,0.8454554045705729
8.038038038038039,0.7492070529887344,0.6643480574371101,0.8449053202826595
8.111111111111112,0.7484161833855565,0.6633683545321891,0.8443676574659752
8.184184184184184,0.747644159039841,0.6624126174560189,0.8438423028430678
8.257257257257258,0.7468907639275365,0.6614805348929875,0.8433291439641619
8.33033033033033,0.7461557840667425,0.6605717992167969,0.842828069191511
8.403403403403404,0.7454390074716084,0.659686106399849,0.8423389676838945
8.476476476476478,0.7447402241069679,0.65882315592436,0.8418617293812533
8.54954954954955,0.7440592258436973,0.6579826506951638,0.8413962449894598
8.622622622622623,0.7433958064147833,0.6571642969541762,0.840942405965218
8.695695695695695,0.7427497613720869,0.6563678041964818,0.8405001045010873
8.76876876876877,0.7421208880437942,0.6555928850880148,0.8400692335106277
8.841841841841843,0.7415089854925361,0.6548392553848019,0.8396496866136578
8.914914914914915,0.7409138544741714,0.6541066338537355,0.8392413581216253
8.987987987987989,0.7403352973972178,0.653394742194851,0.8388441430230812
9.061061061061062,0.7397731182829201,0.6527033049650792,0.8384579369692559
9.134134134134134,0.7392271227259466,0.652032049503444,0.8380826362597309
9.207207207207208,0.7386971178556989,0.6513807058576822,0.8377181378282006
9.28028028028028,0.7381829122982309,0.6507490067122588,0.8373643392283222
9.353353353353354,0.73768431613876,0.6501366873177522,0.8370211386196462
9.426426426426428,0.7372011408847657,0.6495434854215864,0.8366884347536236
9.4994994994995,0.7367331994296648,0.6489691412000866,0.8363661269596862
9.572572572572573,0.7362803060170497,0.6484133971918357,0.8360541151313925
9.645645645645645,0.7358422762054897,0.6478759982323113,0.8357522997126394
9.71871871871872,0.7354189268338757,0.6473566913897809,0.835460581683928
9.791791791791793,0.735010075987308,0.6468552259024346,0.8351788625486856
9.864864864864865,0.7346155429635154,0.6463713531167402,0.8349070443196347
9.937937937937939,0.7342351482397956,0.6459048264269952,0.8346450295052065
10.011011011011012,0.7338687134404743,0.6454554012160638,0.8343927210959925
10.084084084084084,0.7335160613048697,0.6450228347972782,0.8341500225512323
10.157157157157158,0.7331770156557577,0.644606886357488,0.8339168377853288
10.23023023023023,0.7328514013683309,0.6442073169012426,0.8336930711543903
10.303303303303304,0.732539044339643,0.6438238891960898,0.8334786274427926
10.376376376376378,0.7322397714585313,0.6434563677189761,0.8332734118497553
10.44944944944945,0.7319534105760129,0.6431045186037356,0.8330773299759325
10.522522522522523,0.7316797904761466,0.6427681095896509,0.832890287810006
10.595595595595595,0.7314187408473529,0.6424469099710769,0.832712191715284
10.66866866866867,0.7311700922541887,0.6421406905481095,0.8325429484162952
10.741741741741743,0.7309336761095696,0.6418492235782924,0.8323824649853766
10.814814814814815,0.7307093246474328,0.6415722827293473,0.8322306488292492
10.887887887887889,0.7304968708958373,0.6413096430329158,0.8320874076755786
10.960960960960962,0.7302961486504946,0.6410610808393044,0.8319526495595145
11.034034034034034,0.7301069924487243,0.6408263737732208,0.8318262828102054
11.107107107107108,0.7299292375438312,0.6406053006904934,0.831708216037285
11.18018018018018,0.729762719879897,0.6403976416357605,0.8315983581173244
11.253253253253254,0.7296072760669846,0.6402031778011266,0.8314966181802487
11.326326326326328,0.7294627433567462,0.6400216914857707,0.8314029055957091
11.3993993993994,0.7293289596184355,0.6398529660565032,0.8313171299594122
11.472472472472473,0.7292057633153168,0.6396967859092609,0.8312392010793997
11.545545545545547,0.72909299348146694,0.6395529364315324,0.8311690289622718
11.618618618618619,0.7289904896989687,0.6394212039657109,0.831106523799358
11.691691691691693,0.7288980920754867,0.6393013757733584,0.8310515959528227
11.764764764764765,0.7288156412222297,0.639193240000388,0.8310041559417108
11.837837837837839,0.7287429782322874,0.6390965856431442,0.8309641144279223
11.910910910910912,0.7286799446593443,0.6390112025153841,0.830931382202117
11.983983983983984,0.728626382496766,0.6389368812161529,0.8309058701695465
12.057057057057058,0.728582134157052,0.6388734130985415,0.8308874893358061
12.13013013013013,0.7285470424516561,0.6388205902393315,0.8308761507925103
12.203203203203204,0.7285209505711695,0.6387782054095128,0.8308717657028823
12.276276276276278,0.7285037020658613,0.6387460520456727,0.8308742452872601
12.34934934934935,0.7284951408265811,0.6387239242222551,0.8308835008085154
12.422422422422423,0.7284951110660107,0.6387116166246769,0.8308994435573811
12.495495495495497,0.7285034573002733,0.638708924523306,0.8309219848376892
12.568568568568569,0.7285200243308894,0.6387156437482897,0.8309510359515142
12.641641641641643,0.7285446572270814,0.6387315706652335,0.8309865081842213
12.714714714714715,0.7285772013084255,0.6387565021517231,0.8310283127894201
12.787787787787789,0.7286175021278449,0.6387902355746868,0.8310763609738203
12.860860860860862,0.7286654054549466,0.638832568768595,0.8311305638819889
12.933933933933934,0.7287207572596979,0.6388833000144895,0.8311908325810113
13.007007007007008,0.728783403696441,0.6389422280198426,0.831257078045052
13.08008008008008,0.7288531910882454,0.6390091518992388,0.8313292111398182
13.153153153153154,0.7289299659115942,0.6390838711558746,0.831407142606925
13.226226226226228,0.729013574781405,0.6391661856638745,0.8314907830481642
13.2992992992993,0.7291038644363858,0.6392558956514192,0.8315800429096776
13.372372372372373,0.7292006817247166,0.6393528016846748,0.831674832466034
13.445445445445447,0.7293038735900683,0.6394567046525296,0.8317750618042166
13.518518518518519,0.7294132870579453,0.6395674057521221,0.8318806408075169
13.591591591591593,0.7295287692223597,0.6396847064751665,0.8319914791393441
13.664664664664665,0.729650167232831,0.6398084085950593,0.8321074862269473
13.737737737737739,0.729777328281714,0.6399383141547721,0.8322285712450576
13.810810810810812,0.7299100995918514,0.6400742254555181,0.8323546430994528
13.883883883883884,0.7300483284045525,0.6402159450461907,0.8324856104104502
13.956956956956958,0.7301918619678944,0.6403632757135638,0.8326213814963268
14.03003003003003,0.7303405475253525,0.6405160204732553,0.8327618643566834
14.103103103103104,0.7304942323047464,0.6406739825614364,0.8329069666557438
14.176176176176178,0.7306527635075194,0.640836965427294,0.8330565957056099
14.24924924924925,0.7308159882983307,0.641004772726222,0.8332106584494663
14.322322322322323,0.7309837537949788,0.6411772083137528,0.8333690614447518
14.395395395395397,0.7311559070586414,0.6413540762402036,0.8335317108462993
14.468468468468469,0.7313322950844419,0.6415351807460443,0.8336985123894547
14.541541541541543,0.731512764792336,0.641720326257969,0.8338693713731845
14.614614614614615,0.7316971630183208,0.641909317385664,0.8340441926431771
14.687687687687689,0.7318853365059679,0.642101958919269,0.8342228805749546
14.760760760760762,0.7320771318982771,0.6422980558275132,0.8344053390569989
14.833833833833834,0.7322723957298533,0.642497413256522,0.8345914714739058
14.906906906906908,0.7324709744194067,0.6426998365292832,0.8347811806895801
14.979979979979982,0.7326727142625753,0.64290513114576,0.8349743690304806
15.053053053053054,0.7328774614250713,0.6431131027836416,0.8351709382689302
15.126126126126128,0.7330850619361512,0.6433235572997189,0.835370789606503
15.1991991991992,0.733295361682409,0.6435363007318722,0.8355738236575029
15.272272272272273,0.7335082064018944,0.6437511393016595,0.8357799404325453
15.345345345345347,0.7337234416785551,0.6439678794174922,0.8359890393222627
15.418418418418419,0.7339409129370068,0.6441863276783878,0.8362010190811431
15.491491491491493,0.7341604654376246,0.6444062908782756,0.8364157778115201
15.564564564564565,0.7343819442719646,0.6446275760108559,0.8366332129477324
15.637637637637638,0.7346051943585101,0.6448499902749847,0.8368532212404663
15.710710710710712,0.7348300604387465,0.6450733410805783,0.8370756987413029
15.783783783783784,0.7350563870735628,0.6452974360550143,0.8373005407874825
15.856856856856858,0.7352840186399833,0.645522083050021,0.8375276419869113
15.929929929929932,0.7355127993282263,0.6457470901490304,0.837756896203423
16.003003003003005,0.7357425731390967,0.6459722656749878,0.8379881965423197
16.076076076076077,0.735973183881704,0.6461974181985889,0.8382214353362072
16.14914914914915,0.7362044751715152,0.6464223565469389,0.8384565041311497
16.222222222222225,0.7364362904287395,0.646646889812609,0.8386932936731611
16.295295295295297,0.7366684728770434,0.6468708273630698,0.838931693895054
16.36836836836837,0.7369008655986345,0.6470939789175472,0.8391715939443303
16.44144144144144,0.7371333489687887,0.6473161993256786,0.8394129093756283
16.514514514514516,0.7373659056846534,0.647537466142714,0.8396556296656333
16.58758758758759,0.7375985357693678,0.6477577777122793,0.8398997568050383
16.66066066066066,0.7378312392460792,0.6479771324187787,0.8401452927440192
16.733733733733736,0.7380640161379416,0.648195528687581,0.8403922393920465
16.806806806806808,0.738296866468117,0.6484129649852014,0.8406405986177047
16.87987987987988,0.7385297902597747,0.6486294398194752,0.8408903722485191
16.952952952952955,0.7387627875360899,0.6488449517397206,0.8411415620707885
17.026026026026027,0.7389958583202468,0.649059499336902,0.8413941698294303
17.0990990990991,0.7392290026354357,0.6492730812437765,0.8416481972278271
17.172172172172175,0.7394622205048555,0.6494856961350404,0.8419036459276859
17.245245245245247,0.7396955119517111,0.6496973427274609,0.8421605175489008
17.31831831831832,0.7399288769992155,0.6499080197800068,0.8424188136694276
17.39139139139139,0.7401623156705888,0.6501177260939666,0.8426785358251633
17.464464464464466,0.7403958279890582,0.6503264605130608,0.8429396855098344
17.53753753753754,0.7406294139778585,0.6505342219235456,0.8432022641748933
17.61061061061061,0.740863073660233,0.6507410092543116,0.8434662732294234
17.683683683683686,0.7410968070594297,0.6509468214769661,0.8437317140400477
17.756756756756758,0.7413306141987058,0.6511516576059198,0.8439985879308528
17.82982982982983,0.7415644951013254,0.6513555166984547,0.8442668961833149
17.902902902902905,0.7417984497905602,0.6515583978547909,0.8445366400362363
17.975975975975977,0.7420324782896887,0.6517603002181401,0.8448078206856888
18.04904904904905,0.7422665806219968,0.6519612229747563,0.8450804392849669
18.122122122122125,0.7425007568107783,0.6521611653539743,0.8453544969445471
18.195195195195197,0.7427350068793338,0.652360126628242,0.8456299947320565
18.26826826826827,0.7429693308509723,0.6525581061131459,0.8459069336722492
18.34134134134134,0.7432037287490088,0.6527551031674235,0.8461853147469901
18.414414414414416,0.743438200596766,0.6529511171929734,0.8464651388952474
18.48748748748749,0.7436727464175742,0.6531461476348558,0.8467464070130936
18.56056056056056,0.7439073662347709,0.6533401939812822,0.847029119953713
18.633633633633636,0.7441420600717015,0.653533255763601,0.8473132785274201
18.706706706706708,0.744376827951718,0.6537253325562721,0.8475988835016813
18.77977977977978,0.7446116698981803,0.6539164239768344,0.8478859356011502
18.852852852852855,0.7448465859344553,0.6541065296858662,0.8481744355077058
18.925925925925927,0.7450815760839171,0.6542956493869366,0.8484643838605015
18.998998998999,0.7453166403699492,0.6544837828265523,0.8487557812560237
19.072072072072075,0.7455517788159385,0.6546709297940861,0.8490486282481505
19.145145145145147,0.7457869914452827,0.6548570901217144,0.8493429253482296
19.21821821821822,0.7460222782813858,0.6550422636843324,0.8496386730251544
19.29129129129129,0.746257639347659,0.6552264503994674,0.8499358717054525
19.364364364364366,0.7464930746675211,0.655409650227185,0.8502345217733807
19.43743743743744,0.7467285842643979,0.6555918631699856,0.8505346235710272
