dose,RR,lb,ub
0,1,1,1
0.08533533533533534,0.9972275474938347,0.9963498161104813,0.9981060521120187
0.17067067067067068,0.9944634967247804,0.9927139303876666,0.9962161465104832
0.25600600600600604,0.9917085336977681,0.9890932542384697,0.9943307282650413
0.34134134134134136,0.9889633366105748,0.9854886850468809,0.9924502391556065
0.4266766766766767,0.9862285759209374,0.9819011062650532,0.9905751177557846
0.5120120120120121,0.9835049144182406,0.978331387513301,0.988705799517937
0.5973473473473474,0.9807930072996849,0.9747803846886368,0.9868427168599891
0.6826826826826827,0.9780935022508401,0.9712489400814717,0.9849862992540982
0.7680180180180181,0.9754070395304948,0.9677378825001086,0.9831369733172944
0.8533533533533534,0.97273425205971,0.9642480274026625,0.9812951629042148
0.9386886886886887,0.9700757655149894,0.9607801770360413,0.9794612892020478
1.0240240240240241,0.9674321984254811,0.9573351205816284,0.9776357708278148
1.1093593593593594,0.9648041622741234,0.9539136343073029,0.9758190239281148
1.1946946946946948,0.9621922616026549,0.9505164817254446,0.9740114622814632
1.28003003003003,0.959597094120407,0.9471444137565643,0.9722134974033648
1.3653653653653655,0.9570192508167986,0.9437981688982063,0.9704255386542604
1.450700700700701,0.9544593160774609,0.9404784733987681,0.9686479933504958
1.5360360360360361,0.9519178678039124,0.9371860414358852,0.9668812668784699
1.6213713713713716,0.9493954775367169,0.9339215752990263,0.9651257628121214
1.7067067067067068,0.9468927105820516,0.9306857655759455,0.9633818830339256
1.7920420420420422,0.9444101261416198,0.9274792913426366,0.9616500278595801
1.8773773773773774,0.9419482774458416,0.9243028203564334,0.9599305961665647
1.9627127127127129,0.9395077118902626,0.9211570092518957,0.9582239855267759
2.0480480480480483,0.937088971175117,0.9180425037391222,0.9565305923434421
2.1333833833833835,0.9346925914479912,0.9149599388041224,0.9548508119925404
2.2187187187187187,0.9323191034495314,0.9119099389108802,0.9531850389689475
2.3040540540540544,0.9299690326621426,0.9088931182047343,0.9515336670375686
2.3893893893893896,0.9276428994616314,0.905910080716694,0.9498970893897071
2.474724724724725,0.925341219271744,0.9029614205683054,0.9482756988049473
2.56006006006006,0.923064502721557,0.9000477221766708,0.9466698878188443
2.6453953953953957,0.9208132558056794,0.8971695604592189,0.945080048896729
2.730730730730731,0.9185879800472273,0.8943275010378109,0.9435065746139573
2.816066066066066,0.9163891726635375,0.8915221004417582,0.9419498578429506
2.901401401401402,0.9142173267345862,0.8887539063093137,0.9404102919473992
2.986736736736737,0.912072931374085,0.8860234575871865,0.9388882709840196
3.0720720720720722,0.9099564719032267,0.8833312847276102,0.9373841899122837
3.1574074074074074,0.9078684300270599,0.880677909882487,0.9358984448125635
3.242742742742743,0.9058092840134703,0.8780638470940997,0.9344314331131618
3.3280780780780783,0.9037795088747537,0.875489602481875,0.93298355382673
3.4134134134134135,0.9017795765517664,0.8729556744246524,0.9315552077966058
3.498748748748749,0.8998099561006437,0.8704625537378902,0.9301467979536351
3.5840840840840844,0.8978711138820782,0.8680107238452179,0.9287587295840817
3.6694194194194196,0.8959635137531555,0.8656006609437138,0.9273914106092628
3.754754754754755,0.894087617261748,0.863232834162254,0.9260452518775897
3.8400900900900905,0.8922438838434678,0.8609077057122538,0.9247206674697374
3.9254254254254257,0.890432771021187,0.85862573103008,0.923418075017709
4.010760760760761,0.8886547346071368,0.8563873589103804,0.9221378960386106
4.096096096096097,0.8869101318431732,0.854192906329735,0.9208804898017128
4.181431431431432,0.8851987411540694,0.8520419402176503,0.9196458229985579
4.266766766766767,0.8835201317232384,0.849933758624528,0.9184337193801178
4.352102102102102,0.8818738779432894,0.8478676683499256,0.9172440059098568
4.4374374374374375,0.8802595596362754,0.8458429851975491,0.9160765128885943
4.522772772772773,0.8786767619333029,0.8438590337854681,0.9149310738526455
4.608108108108109,0.877125075156422,0.8419151473560283,0.9138075254783575
4.693443443443444,0.8756040947027517,0.8400106675863556,0.9127057074919923
4.778778778778779,0.8741134209307857,0.838144944400193,0.9116254625840644
4.864114114114114,0.8726526590488377,0.8363173357816953,0.9105666363273711
4.94944944944945,0.8712214190055757,0.8345272075916929,0.9095290770980545
5.034784784784785,0.8698193153826033,0.8327739333868637,0.9085126359991266
5.12012012012012,0.8684459672890422,0.8310568942421753,0.9075171667859623
5.205455455455456,0.8671009982580764,0.8293754785769006,0.9065425257933267
5.290790790790791,0.8657840361454138,0.8277290819844643,0.9055885718635559
5.376126126126127,0.8644947130296265,0.8261171070663357,0.904655166275555
5.461461461461462,0.863232665114331,0.8245389632701469,0.9037421726743164
5.546796796796797,0.8619975326321692,0.8229940667321871,0.9028494570006934
5.632132132132132,0.8607889597505529,0.8214818401244001,0.9019768874211913
5.7174674674674675,0.859606594479138,0.820001712505987,0.9011243342575654
5.802802802802804,0.8584500885789894,0.818553119179703,0.9002916699160359
5.888138138138139,0.8573190974734064,0.8171355015529145,0.8994787688159461
5.973473473473474,0.8562132801603721,0.815748307003475,0.8986855073177136
6.058808808808809,0.8551322991265962,0.814390988750461,0.897911763649932
6.1441441441441444,0.8540758202631195,0.8130630057298016,0.8971574178355015
6.22947947947948,0.8530435127824482,0.8117638224748208,0.8964223516166736
6.314814814814815,0.8520350491371901,0.8104929090017088,0.8957064483789127
6.400150150150151,0.8510501049401619,0.8092497406999228,0.8950095930734842
6.485485485485486,0.8500883588859403,0.808033798227515,0.8943316721386911
6.570820820820821,0.8491494926738292,0.8068445674113749,0.893672573419692
6.656156156156157,0.8482331909322165,0.805681539152367,0.8930321860868421
6.741491491491492,0.8473391411442938,0.8045442093353364,0.8924104005525092
6.826826826826827,0.8464670335751152,0.8034320787439493,0.8918071083863245
6.912162162162162,0.8456165611999686,0.8023446529803246,0.8912222022288414
6.997497497497498,0.8447874196340385,0.8012814423894128,0.8906555757035793
7.082832832832834,0.843979307063333,0.8002419619880622,0.8901071233274438
7.168168168168169,0.8431919241768576,0.7992257313987111,0.8895767404195193
7.253503503503504,0.8424249741000097,0.7982322747876376,0.8890643230082445
7.338838838838839,0.8416781623291738,0.7972611208076865,0.8885697677369858
7.4241741741741745,0.8409511966674986,0.7963118025453908,0.8880929717680363
7.50950950950951,0.8402437871618332,0.795383857472394,0.8876338326850745
7.594844844844846,0.8395556460408046,0.7944768274010722,0.8871922483941305
7.680180180180181,0.8388864876540172,0.7935902584442506,0.886768117023113
7.765515515515516,0.8382360284123566,0.7927237009788961,0.8863613368199604
7.850850850850851,0.837603986729378,0.791876709613665,0.8859718060494921
7.936186186186187,0.8369900829637651,0.7910488431601715,0.8855994228890396
8.021521521521523,0.8363940393628398,0.790239664607844,0.8852440853229526
8.106856856856858,0.8358155800071084,0.7894487411022161,0.884905691036079
8.192192192192193,0.8352544307558273,0.7886756439265052,0.8845841373063289
8.277527527527528,0.8347103191935743,0.7879199484863146,0.8842793208964429
8.362862862862864,0.8341829745778103,0.7871812342972927,0.8839911379450894
8.448198198198199,0.8336721277874164,0.7864590849755747,0.883719483857426
8.533533533533534,0.8331775112721933,0.7857530882308285,0.8834642531952698
8.61886886886887,0.8326988590033098,0.7850628358617161,0.8832253395670225
8.704204204204204,0.832235906424687,0.7843879237535812,0.8830026355175106
8.78953953953954,0.8317883904053066,0.7837279518781656,0.8827960324178992
8.874874874874875,0.8313560491924293,0.7830825242951537,0.882605420355851
8.96021021021021,0.8309386223657139,0.7824512491553415,0.8824306880261014
9.045545545545545,0.8305358507922245,0.7818337387052223,0.8822717226216279
9.130880880880882,0.8301474765823156,0.7812296092927792,0.8821284097255937
9.216216216216218,0.8297732430463834,0.7806384813742714,0.8820006332042511
9.301551551551553,0.8294128946524753,0.7800599795218061,0.8818882751009886
9.386886886886888,0.829066176984745,0.7794937324314772,0.8817912155317085
9.472222222222223,0.8287328367027477,0.7789393729318659,0.8817093325817252
9.557557557557558,0.8284126215015607,0.778396537992685,0.8816425022043678
9.642892892892894,0.8281052800727279,0.7778648687333678,0.8815905981214733
9.728228228228229,0.8278105620660121,0.777344010431387,0.8815534917259557
9.813563563563564,0.8275282180519546,0.7768336125301124,0.881531051986629
9.8988988988989,0.8272579994852268,0.776333328646003,0.8815231453554613
9.984234234234235,0.8269996586687739,0.7758428165749501,0.8815296356774319
10.06956956956957,0.8267529487187366,0.7753617382975834,0.8815503841031568
10.154904904904905,0.8265176235301498,0.7748897599833647,0.8815852490044415
10.24024024024024,0.8262934377434075,0.7744265519933035,0.8816340858929153
10.325575575575577,0.8260801467114897,0.7739717888811305,0.8816967473418893
10.410910910910912,0.8258775064679453,0.7735251493927827,0.8817730829115756
10.496246246246248,0.8256852736956252,0.7730863164640592,0.8818629390777921
10.581581581581583,0.8255032056961576,0.7726549772163159,0.8819661591642727
10.666916916916918,0.8253310603601658,0.7722308229500843,0.8820825832786856
10.752252252252253,0.825168596138217,0.7718135491365047,0.8822120482524594
10.837587587587588,0.8250155720125032,0.7714028554064811,0.8823543875844968
10.922922922922924,0.8248717474692447,0.7709984455374729,0.882509431388854
11.008258258258259,0.8247368824718166,0.7706000274378537,0.8826770063464425
11.093593593593594,0.8246107374345901,0.7702073131287807,0.8828569356608066
11.17892892892893,0.8244930731974874,0.7698200187235266,0.8830490390180108
11.264264264264265,0.8243836510012458,0.7694378644042442,0.8832531325506667
11.3495995995996,0.8242822324633876,0.7690605743961401,0.883469028806109
11.434934934934935,0.8241885795548922,0.7686878769390523,0.8836965367187263
11.52027027027027,0.8241024545775681,0.7683195042564349,0.8839354615864351
11.605605605605607,0.8240236201421216,0.7679551925217648,0.8841856050512782
11.690940940940942,0.8239518391469185,0.7675946818223978,0.884446765084114
11.776276276276278,0.823886874757439,0.767237716120914,0.8847187359733566
11.861611611611613,0.8238284903864205,0.7668840432139995,0.8850013083177147
11.946946946946948,0.8237764496746873,0.7665334146889239,0.8852942690228666
12.032282282282283,0.8237305164726672,0.7661855858776813,0.8855974013020028
12.117617617617618,0.823690454822588,0.7658403158088719,0.8859104846801564
12.202952952952954,0.8236560289413588,0.765497367157411,0.8862332950022356
12.288288288288289,0.8236270032041288,0.7651565061921537,0.886565604444664
12.373623623623624,0.8236031421285261,0.7648175027215406,0.8869071815305316
12.45895895895896,0.8235842103595721,0.7644801300373644,0.8872577911481466
12.544294294294295,0.8235699726552734,0.7641441648567724,0.887617194572884
12.62962962962963,0.8235601938728875,0.7638093872626174,0.8879851494922091
12.714964964964965,0.8235546389558633,0.763475580642279,0.8883614100337649
12.800300300300302,0.8235530729214536,0.7631425316250747,0.8887457267963966
12.885635635635637,0.823555260849001,0.7628100300183893,0.8891378468839947
12.970970970970972,0.8235609678688943,0.7624778687426466,0.8895375139420284
13.056306306306308,0.8235699591521988,0.7621458437652536,0.8899444681966483
13.141641641641643,0.8235819999009524,0.7618137540336427,0.8903584464962263
13.226976976976978,0.8235968553391376,0.7614814014075441,0.8907791823552165
13.312312312312313,0.823614290704319,0.7611485905906112,0.8912064060002028
13.397647647647648,0.823634071239953,0.7608151290615306,0.8916398444180214
13.482982982982984,0.8236559621883659,0.7604808270047352,0.8920792214058261
13.568318318318319,0.8236797287844029,0.7601454972408487,0.8925242576229906
13.653653653653654,0.823705136249744,0.7598089551569747,0.8929746706447211
13.73898898898899,0.8237319497878911,0.7594710186369518,0.893430175017276
13.824324324324325,0.823759934579825,0.7591315079916849,0.89389048231468
13.90965965965966,0.8237888557803292,0.7587902458896605,0.8943553011968302
13.994994994994997,0.8238184785149864,0.7584470572877545,0.8948243374688938
14.080330330330332,0.8238485678778418,0.7581017693624289,0.895297294141902
14.165665665665667,0.8238788889299945,0.7577542114416522,0.8957738714947262
14.251001001001002,0.8239092481053709,0.7574042531125716,0.8962538120480621
14.336336336336338,0.8239396083994546,0.7570519093777793,0.8967370267217407
14.421671671671673,0.8239699698122873,0.7566972287468532,0.8972234671412956
14.507007007007008,0.8240003323439099,0.7563402588974554,0.8977130857646568
14.592342342342343,0.8240306959943637,0.7559810466814704,0.8982058358760159
14.677677677677679,0.82406106076369,0.7556196381317088,0.898701671579122
14.763013013013014,0.8240914266519299,0.7552560784691323,0.8992005477900559
14.848348348348349,0.8241217936591249,0.7548904121105534,0.8997024202295314
14.933683683683684,0.8241521617853158,0.7545226826767675,0.9002072454147619
15.01901901901902,0.8241825310305443,0.7541529330010777,0.9007149806509382
15.104354354354355,0.8242129013948511,0.7537812051381703,0.9012255840223504
15.189689689689692,0.824243272878278,0.7534075403733087,0.901739014383196
15.275025025025027,0.824273645480866,0.7530319792318083,0.9022552313481047
15.360360360360362,0.8243040192026564,0.7526545614887594,0.9027741952824145
15.445695695695697,0.82433439404369,0.7522753261789697,0.9032958672922298
15.531031031031032,0.8243647700040088,0.7518943116070973,0.9038202092142913
15.616366366366368,0.8243951470836532,0.7515115553579412,0.9043471836056801
15.701701701701703,0.8244255252826654,0.7511270943068739,0.9048767537333913
15.787037037037038,0.824455904601086,0.7507409646303815,0.9054088835637879
15.872372372372373,0.8244862850389563,0.7503532018166983,0.905943537751972
15.957707707707709,0.8245166665963173,0.7499638406765062,0.9064806816310809
16.043043043043046,0.8245470492732111,0.7495729153536878,0.9070202812015388
16.12837837837838,0.8245774330696782,0.7491804593361062,0.9075623031202716
16.213713713713716,0.8246078179857603,0.7487865054664038,0.9081067146899134
16.29904904904905,0.8246382040214985,0.7483910859527956,0.908653483848009
16.384384384384386,0.8246685911769343,0.7479942323798502,0.9092025791562369
16.46971971971972,0.8246989794521078,0.7475959757192374,0.9097539697896567
16.555055055055057,0.824729368847062,0.7471963463404397,0.9103076255260065
16.64039039039039,0.8247597593618368,0.7467953740214024,0.9108635167350411
16.725725725725727,0.8247901509964745,0.7463930879591286,0.9114216143679484
16.81106106106106,0.8248205437510153,0.7459895167801937,0.9119818899468263
16.896396396396398,0.8248509376255012,0.7455846885511824,0.9125443155542513
16.98173173173173,0.8248813326199733,0.7451786307890339,0.9131088638229322
17.067067067067068,0.8249117287344727,0.744771370471288,0.9136755079254618
17.152402402402405,0.8249421259690412,0.7443629340462306,0.914244221564175
17.23773773773774,0.8249725243237191,0.7439533474429256,0.9148149789611129
17.323073073073076,0.8250029237985488,0.7435426360811356,0.9153877548481074
17.40840840840841,0.8250333243935708,0.7431308248811183,0.91596252445698
17.493743743743746,0.8250637261088267,0.7427179382733027,0.9165392635098688
17.57907907907908,0.8250941289443576,0.742304000207835,0.9171179482096808
17.664414414414416,0.8251245329002045,0.741889034163995,0.9176985552306772
17.74974974974975,0.8251549379764099,0.7414730631594788,0.9182810617091918
17.835085085085087,0.8251853441730135,0.7410561097595425,0.9188654452344813
17.92042042042042,0.825215751490058,0.7406381960860143,0.9194516838397235
18.005755755755757,0.8252461599275833,0.7402193438261591,0.9200397559931411
18.09109109109109,0.8252765694856323,0.7397995742414105,0.9206296405892821
18.176426426426428,0.8253069801642445,0.7393789081759522,0.9212213169404257
18.261761761761765,0.8253373919634628,0.7389573660651665,0.9218147647681467
18.347097097097098,0.8253678048833272,0.7385349679439305,0.9224099641950076
18.432432432432435,0.8253982189238802,0.7381117334547781,0.9230068957364078
18.51776776776777,0.8254286340851623,0.7376876818559109,0.9236055402925626
18.603103103103106,0.8254590503672147,0.7372628320290728,0.9242058791406353
18.68843843843844,0.8254894677700791,0.7368372024872796,0.924807893927007
18.773773773773776,0.8255198862937967,0.7364108113824057,0.9254115666596866
18.85910910910911,0.8255503059384088,0.7359836765126342,0.9260168797008653
18.944444444444446,0.8255807267039565,0.7355558153297616,0.9266238157596077
19.02977977977978,0.8256111485904815,0.7351272449463692,0.9272323578846846
19.115115115115117,0.8256415715980246,0.7346979821428526,0.9278424894575406
19.20045045045045,0.8256719957266279,0.7342680433743178,0.9284541941854
19.285785785785787,0.825702420976332,0.7338374447773397,0.9290674560945061
19.37112112112112,0.8257328473471782,0.7334062021765901,0.929682259523496
19.456456456456458,0.8257632748392081,0.7329743310913319,0.9302985891169054
19.541791791791795,0.8257937034524628,0.732541846741783,0.9309164298188042
19.627127127127128,0.8258241331869844,0.7321087640553534,0.9315357668665615
19.712462462462465,0.8258545640428127,0.7316750976727519,0.9321565857847341
19.7977977977978,0.8258849960199909,0.7312408619539738,0.9327788723790885
19.883133133133136,0.8259154291185584,0.7308060709841568,0.9334026127307317
19.96846846846847,0.8259458633385577,0.7303707385793256,0.9340277931903801
20.053803803803806,0.8259762986800309,0.7299348782920088,0.9346544003727361
20.13913913913914,0.8260067351430164,0.7294985034167394,0.935282421150981
20.224474474474476,0.826037172727559,0.7290616269954491,0.9359118426514013
20.30980980980981,0.826067611433698,0.7286242618227317,0.9365426522481
20.395145145145147,0.8260980512614755,0.7281864204510123,0.9371748375578467
20.48048048048048,0.8261284922109312,0.7277481151955939,0.9378083864350195
20.565815815815817,0.8261589342821086,0.7273093581396057,0.9384432869666682
20.651151151151154,0.8261893774750483,0.7268701611388374,0.9390795274676689
20.736486486486488,0.8262198217897924,0.7264305358264751,0.9397170964759948
20.821821821821825,0.8262502672263798,0.7259904936177305,0.940355982748079
20.907157157157158,0.8262807137848537,0.7255500457143793,0.9409961752542916
20.992492492492495,0.8263111614652552,0.7251092031091891,0.9416376631744976
21.07782782782783,0.8263416102676269,0.7246679765902614,0.9422804358937241
21.163163163163166,0.8263720601920069,0.7242263767452692,0.942924482997909
21.2484984984985,0.8264025112384387,0.723784413965617,0.9435697942697625
21.333833833833836,0.826432963406964,0.7233420984504948,0.9442163596846977
21.41916916916917,0.8264634166976242,0.7228994402108518,0.9448641694068604
21.504504504504506,0.8264938711104591,0.7224564490732804,0.9455132137852432
21.58983983983984,0.826524326645511,0.7220131346838189,0.9461634833498901
21.675175175175177,0.8265547833028211,0.7215695065116652,0.9468149688081763
21.76051051051051,0.8265852410824317,0.7211255738528145,0.9474676610411756
21.845845845845847,0.8266156999843831,0.7206813458336104,0.9481215511001019
21.931181181181184,0.8266461600087169,0.720236831414226,0.9487766302028359
22.016516516516518,0.8266766211554729,0.7197920393920608,0.949432889730521
22.101851851851855,0.8267070834246955,0.7193469784050721,0.950090321224247
22.187187187187188,0.8267375468164246,0.7189016569350203,0.9507489163817846
22.272522522522525,0.8267680113307019,0.7184560833106536,0.9514086670544137
22.35785785785786,0.8267984769675661,0.7180102657108165,0.9520695652438065
22.443193193193196,0.8268289437270628,0.7175642121674984,0.9527316030989981
22.52852852852853,0.8268594116092318,0.7171179305687999,0.9533947729133954
22.613863863863866,0.8268898806141138,0.7166714286618469,0.9540590671218755
22.6991991991992,0.8269203507417486,0.7162247140556349,0.954724478297939
