dose,RR,lb,ub
0,1,1,1
0.07854854854854855,0.9963494672808313,0.9954685140806656,0.9972312000923356
0.1570970970970971,0.992712751041277,0.9909582056998246,0.99447040290058
0.23564564564564566,0.9890902855684794,0.9864696133223528,0.9917179199378473
0.3141941941941942,0.9854824982411426,0.9820032643131098,0.988974059082095
0.39274274274274273,0.9818898095996088,0.9775596750739532,0.986239124606506
0.4712912912912913,0.9783126334177198,0.9731393511834461,0.9835134172107813
0.5498398398398399,0.9747513767764033,0.9687427875391365,0.9807972340533258
0.6283883883883884,0.971206440138933,0.9643704685022942,0.9780908687843077
0.7069369369369369,0.9676782174278055,0.9600228680449892,0.9753946115795784
0.7854854854854855,0.9641670961031821,0.9557004498993996,0.9727087491754322
0.864034034034034,0.9606734572428447,0.9514036677092427,0.9700335649041917
0.9425825825825827,0.9571976756236117,0.9471329651832187,0.9673693387306025
1.021131131131131,0.9537401198041678,0.942888776250367,0.9647163472890203
1.0996796796796797,0.9503011522092558,0.9386715252172314,0.9620748639213769
1.1782282282282281,0.9468811292151841,0.9344816269267366,0.9594451587159072
1.2567767767767768,0.9434804012366035,0.9303194869186802,0.956827498546627
1.3353253253253254,0.9400993128145072,0.9261855015917464,0.9542221471135415
1.4138738738738739,0.9367382027054098,0.9220800583669522,0.951629364983576
1.4924224224224225,0.9333974039716616,0.9180035358524355,0.9490494096322122
1.570970970970971,0.9300772440728575,0.9139563040095038,0.9464825354858175
1.6495195195195196,0.9267780449582981,0.9099387243198571,0.943928993964656
1.728068068068068,0.9235001231604635,0.9059511499539078,0.9413890335265669
1.8066166166166167,0.9202437898894622,0.9019939259401192,0.9388628997113009
1.8851651651651653,0.9170093511284169,0.8980673893352883,0.9363508351855016
1.9637137137137137,0.9137971077297501,0.8941718693957013,0.9338530797883217
2.042262262262262,0.9106073555123366,0.8903076877490916,0.9313698705776642
2.120810810810811,0.9074403853594868,0.8864751585673353,0.9289014418770384
2.1993593593593594,0.9042964833177302,0.8826745887398179,0.926448025323021
2.277907907907908,0.9011759306963654,0.8789062780474132,0.9240098499133147
2.3564564564564563,0.8980790041677483,0.8751705193370134,0.9215871420553956
2.435005005005005,0.8950059758682892,0.8714675986965557,0.9191801256157415
2.5135535535535536,0.8919571135001286,0.8677977956304894,0.9167890219696346
2.592102102102102,0.8889326804334692,0.864161383235636,0.9144140500515324
2.670650650650651,0.8859329358095347,0.8605586283773883,0.9120554264059997
2.7491991991991993,0.882958134644134,0.8569897918662076,0.9097133652391991
2.8277477477477477,0.8800085279318058,0.8534551286343703,0.9073880784709325
2.906296296296296,0.877084362750524,0.8499548879129256,0.9050797757872322
2.984844844844845,0.8741858823669408,0.8464893134088239,0.9027886646934966
3.0633933933933934,0.8713133263421508,0.843058643482179,0.9005149505681704
3.141941941941942,0.8684669306379555,0.83966311132363,0.898258836716965
3.2204904904904907,0.865646927723614,0.8363029451317706,0.8960205244276194
3.299039039039039,0.8628535466830612,0.8329783682906156,0.8938002130252024
3.3775875875875876,0.8600870133225823,0.829689599547077,0.8915980999279552
3.456136136136136,0.8573475502789275,0.8264368531884252,0.8894143807036763
3.534684684684685,0.8546353771278566,0.8232203392197085,0.8872492491266516
3.6132332332332333,0.851950710493103,0.820040263541115,0.885102897235133
3.6917817817817817,0.8492937641557452,0.8168968281252514,0.8829755153893688
3.7703303303303306,0.8466647491639814,0.8137902311943273,0.8808672923301913
3.848878878878879,0.8440638739432959,0.8107206673972244,0.8787784152381696
3.9274274274274275,0.8414913444070142,0.8076883279864416,0.8767090697933312
4.005975975975976,0.8389473640672418,0.8046934009949018,0.8746594402354647
4.084524524524524,0.8364321341461817,0.8017360714126113,0.8726297094250101
4.163073073073073,0.83394585368783,0.7988165213631634,0.8706200589045482
4.241621621621622,0.831488719670049,0.7959349302800824,0.8686306689609026
4.3201701701701705,0.8290609271170153,0.7930914750829992,0.8666617186878636
4.398718718718719,0.826662668035229,0.7902863288764014,0.8647133852039603
4.477267267267267,0.8242939727708192,0.787519461982037,0.8627857295567359
4.555815815815816,0.8219545519944161,0.7847904445713518,0.860878582579271
4.634364364364364,0.8196440821419779,0.7820988056075203,0.8589917496019068
4.712912912912913,0.8173622438816528,0.7794440811243728,0.857125038090638
4.791461461461462,0.8151087220435362,0.7768258140969537,0.8552782576153223
4.87001001001001,0.8128832055506249,0.77424355431439,0.8534512198185417
4.948558558558559,0.8106853873509402,0.7716968582550386,0.8516437383850822
5.027107107107107,0.8085149643508033,0.7691852889638836,0.8498556290120031
5.105655655655656,0.806371637349235,0.7667084159321478,0.8480867093792678
5.184204204204204,0.8042551109734638,0.7642658149790866,0.8463367991209162
5.2627527527527524,0.8021650936155161,0.761857068135927,0.8446057197967545
5.341301301301302,0.800101297369872,0.7594817635319164,0.8428932948645451
5.41984984984985,0.7980634379721634,0.7571394952824448,0.8411993496526775
5.498398398398399,0.7960512347388966,0.7548298633792039,0.8395237113333065
5.576946946946947,0.7940644105081787,0.7525524735823449,0.8378662088959399
5.6554954954954955,0.7921026915814293,0.7503069373146012,0.8362266731214657
5.734044044044044,0.7901658076660596,0.7480928715573348,0.8346049365566028
5.812592592592592,0.7882534918190979,0.7459098987484748,0.833000833488766
5.891141141141142,0.7863654803917479,0.7437576466823083,0.8314141999213325
5.96968968968969,0.7845015129748589,0.7416357484110898,0.8298448735493018
6.0482382382382385,0.7826613323452911,0.739543842148433,0.8282926937353368
6.126786786786787,0.7808446844131618,0.7374815711744507,0.8267575014861785
6.205335335335335,0.7790513181699524,0.7354485837426079,0.8252391394294268
6.283883883883884,0.7772809856374632,0.7334445329882542,0.823737451790675
6.362432432432432,0.7755334418175982,0.7314690768388032,0.8222522843709966
6.4409809809809815,0.7738084446429663,0.7295218779255249,0.8207834845247703
6.51952952952953,0.7721057549282806,0.7276026034969189,0.8193309011378415
6.598078078078078,0.7704251363225462,0.7257109253336385,0.8178943846060094
6.676626626626627,0.7687663552620156,0.7238465196649324,0.8164737868138366
6.755175175175175,0.7671291809239031,0.7220090670865753,0.8150689611137719
6.833723723723724,0.7655133851808414,0.7201982524802566,0.8136797623055828
6.912272272272272,0.7639187425560663,0.7184137649343981,0.8123060466160894
6.990820820820821,0.7623450301793187,0.7166552976663726,0.8109476716791962
7.06936936936937,0.7607920277434481,0.7149225479460942,0.8096044965162154
7.147917917917918,0.7592595174617068,0.7132152170209539,0.808276381516475
7.226466466466467,0.757747284025721,0.7115330100420723,0.8069631884182097
7.305015015015015,0.7562551145641264,0.7098756359918452,0.8056647802897267
7.3835635635635635,0.7547827986018582,0.7082428076127529,0.8043810215108423
7.462112112112112,0.7533301280200807,0.706634241337411,0.8031117777545859
7.540660660660661,0.7518968970167482,0.7050496572198369,0.8018569159691638
7.61920920920921,0.7504829020677822,0.7034887788679065,0.8006163043601817
7.697757757757758,0.7490879418888576,0.7019513333769795,0.7993898123731193
7.7763063063063065,0.7477118173977844,0.7004370512646688,0.7981773106760526
7.854854854854855,0.7463543316774752,0.6989456664067321,0.7969786711426207
7.933403403403403,0.7450152899394883,0.6974769159740621,0.7957937668352325
8.011951951951952,0.743694499488135,0.696030540370756,0.7946224719885089
8.0905005005005,0.7423917696851438,0.6946062831732407,0.793464661992957
8.169049049049049,0.7411069119148672,0.6932038910704346,0.7923202133788716
8.247597597597597,0.739839739550027,0.691823113804925,0.7911890038004612
8.326146146146145,0.7385900679179835,0.6904637041151418,0.7900709120201942
8.404694694694696,0.7373577142675238,0.6891254176785074,0.7889658178933606
8.483243243243244,0.7361424977361563,0.687808013055545,0.7878736023528479
8.561791791791793,0.7349442393179053,0.6865112516349252,0.7867941473941248
8.640340340340341,0.7337627618315966,0.6852348975794356,0.7857273360604313
8.71888888888889,0.7325978898896244,0.6839787177728521,0.7846730524281709
8.797437437437438,0.7314494498671918,0.6827424817676985,0.7836311815925001
8.875985985985986,0.7303172698720175,0.6815259617338738,0.7826016096531156
8.954534534534535,0.7292011797145003,0.6803289324081349,0.7815842237002307
9.033083083083083,0.7281010108783321,0.6791511710444149,0.7805789118007423
9.111631631631631,0.7270165964915551,0.6779924573649634,0.7795855629845814
9.19018018018018,0.7259477712980517,0.6768525735122937,0.7786040672312469
9.268728728728728,0.724894371629463,0.6757313040019209,0.777634315456518
9.347277277277277,0.723856235377527,0.6746284356758767,0.7766761994993412
9.425825825825825,0.7228332019668295,0.673543757656987,0.775729612108891
9.504374374374375,0.7218251123279631,0.6724770613038996,0.7747944469317993
9.582922922922924,0.7208318088710824,0.6714281401668449,0.7738705984995511
9.661471471471472,0.7198531354598551,0.6703967899441208,0.7729579622160432
9.74002002002002,0.7188889373857975,0.6693828084392863,0.7720564343453039
9.818568568568569,0.7179390613429916,0.6683859955190518,0.771165911999369
9.897117117117118,0.7170033554031742,0.6674061530718542,0.7702862931263119
9.975665665665666,0.7160816689911952,0.6664430849671048,0.7694174764984257
10.054214214214214,0.7151738528608373,0.6654965970150991,0.768559361700553
10.132762762762763,0.7142797590709911,0.6645664969275753,0.7677118491185606
10.211311311311311,0.7133992409621801,0.6636525942789124,0.7668748399279577
10.28985985985986,0.7125321531334327,0.6627547004679576,0.7660482360826523
10.368408408408408,0.7116783514194893,0.6618726286804698,0.7652319403038449
10.446956956956956,0.7108376928683477,0.6610061938521724,0.7644258560690562
10.525505505505505,0.710010035719133,0.6601552126324038,0.7636298876012844
10.604054054054053,0.7091952393802933,0.6593195033483555,0.7628439398582915
10.682602602602604,0.7083931644081132,0.6584988859698909,0.7620679185220145
10.761151151151152,0.70760367248554,0.6576931820749324,0.7613017299880983
10.8396996996997,0.7068266264013198,0.6569022148154123,0.7605452813555487
10.918248248248249,0.7060618900294359,0.656125808883774,0.7597984804165011
10.996796796796797,0.7053093283088473,0.6553637904800194,0.7590612356461031
11.075345345345346,0.7045688072235226,0.6546159872792927,0.7583334561925086
11.153893893893894,0.7038401937827625,0.6538822283999937,0.7576150518669785
11.232442442442442,0.7031233560018096,0.6531623443724104,0.7569059331340876
11.310990990990991,0.7024181628827394,0.6524561671078685,0.756206011102033
11.38953953953954,0.7017244843956292,0.6517635298683863,0.7555151975130424
11.468088088088088,0.7010421914599991,0.6510842672368296,0.7548334047338779
11.546636636636636,0.7003711559265254,0.6504182150875617,0.7541605457464348
11.625185185185185,0.699711250559017,0.6497652105575801,0.7534965341384293
11.703733733733733,0.6990623490166538,0.6491250920181338,0.7528412840941756
11.782282282282283,0.6984243258364854,0.648497699046817,0.7521947103854467
11.860830830830832,0.6977970564161823,0.6478828724001316,0.7515567283624177
11.93937937937938,0.6971804169970383,0.6472804539865148,0.7509272539446875
12.017927927927929,0.6965742846472207,0.6466902868398235,0.7503062036123771
12.096476476476477,0.6959785372452651,0.6461122150932763,0.7496934943973009
12.175025025025025,0.69539305346381,0.6455460839538405,0.7490890438742076
12.253573573573574,0.6948177127535685,0.6449917396770649,0.7484927701520875
12.332122122122122,0.6942523953275365,0.6444490295423542,0.7479045918655467
12.41067067067067,0.6936969821454295,0.6439178018286758,0.7473244281662383
12.489219219219219,0.6931513548983486,0.6433979057907,0.7467521987143545
12.567767767767767,0.6926153959936727,0.6428891916353684,0.7461878236701724
12.646316316316316,0.692088988540171,0.6423915104988841,0.7456312236856515
12.724864864864864,0.691572016333337,0.6419047144241241,0.7450823198960803
12.803413413413413,0.6910643638409371,0.6414286563384678,0.7445410339117683
12.881961961961963,0.6905659161887752,0.6409631900320396,0.74400728780978
12.960510510510511,0.6900765591466673,0.6405081701363633,0.743481004125709
13.03905905905906,0.6895961791146255,0.6400634521034221,0.7429621058454872
13.117607607607608,0.6891246631092477,0.6396288921851272,0.7424505163972273
13.196156156156157,0.6886618987503116,0.6392043474131869,0.7419461596430946
13.274704704704705,0.6882077742475704,0.6387896755793773,0.7414489598712068
13.353253253253254,0.6877621783877462,0.6383847352162111,0.7409588417875541
13.431801801801802,0.6873250005217219,0.6379893855780036,0.7404757305079415
13.51035035035035,0.6868961305519257,0.6376034866223317,0.7399995515499472
13.588898898898899,0.6864754589199107,0.6372268989918874,0.739530230824894
13.667447447447447,0.6860628765941208,0.6368594839967209,0.7390676946298302
13.745995995995996,0.6856582750578496,0.6365011035968753,0.7386118696395196
13.824544544544544,0.6852615462973803,0.6361516203854074,0.7381626828984312
13.903093093093092,0.6848725827903146,0.6358108975717989,0.7377200618127325
13.981641641641643,0.6844912774940802,0.6354787989657502,0.7372839341422778
14.060190190190191,0.6841175238346205,0.6351551889613629,0.7368542279925897
14.13873873873874,0.6837512156952625,0.6348399325217047,0.7364308718068322
14.217287287287288,0.6833922474057613,0.6345328951637573,0.7360137943577686
14.295835835835836,0.6830405137315206,0.6342339429437522,0.7356029247397055
14.374384384384385,0.6826959098629842,0.6339429424428811,0.7351981923604135
14.452932932932933,0.6823583314052029,0.6336597607533971,0.7347995269330291
14.531481481481482,0.6820276743675676,0.6333842654650917,0.7344068584679259
14.61003003003003,0.6817038351537144,0.6331163246521564,0.7340201172645592
14.688578578578579,0.681386710551594,0.6328558068604244,0.7336392339032768
14.767127127127127,0.6810761977237096,0.6326025810949957,0.7332641392370935
14.845675675675675,0.6807721941975152,0.6323565168082402,0.7328947643834264
14.924224224224224,0.6804745978559815,0.6321174838881869,0.7325310407157894
15.002772772772772,0.680183306928318,0.6318853526472892,0.732172899855439
15.081321321321322,0.6798982199808596,0.6316599938115764,0.7318202736629758
15.15986986986987,0.6796192359081106,0.6314412785101853,0.7314730942298918
15.23841841841842,0.6793462539239442,0.6312290782652719,0.731131293870064
15.316966966966968,0.6790791735529621,0.6310232649823081,0.730794805111192
15.395515515515516,0.6788178946220064,0.6308237109407598,0.7304635606861742
15.474064064064065,0.6785623172518279,0.6306302887851467,0.7301374935244235
15.552612612612613,0.6783123418489048,0.6304428715164849,0.7298165367431146
15.631161161161161,0.678067869097416,0.6302613324841142,0.7295006236383685
15.70970970970971,0.6778287999513641,0.6300855453779064,0.7291896876763629
15.788258258258258,0.6775950356268481,0.6299153842208578,0.7288836624843724
15.866806806806807,0.6773664775944847,0.6297507233620638,0.7285824818417335
15.945355355355355,0.6771430275719795,0.6295914374700795,0.7282860796707347
16.023903903903904,0.6769245875168438,0.6294374015266596,0.7279943900274268
16.102452452452454,0.6767110596192569,0.6292884908208848,0.7277073470923544
16.181001001001,0.6765023462950768,0.6291445809436695,0.7274248851612061
16.25954954954955,0.6762983501789913,0.6290055477826516,0.7271469386353803
16.338098098098097,0.6760989741178164,0.6288712675174646,0.7268734420124691
16.416646646646647,0.675904121163936,0.6287416166153925,0.726604329876656
16.495195195195194,0.6757136945688841,0.6286164718274035,0.7263395368890283
16.573743743743744,0.6755275977770689,0.6284957101845653,0.7260789977778026
16.65229229229229,0.6753457344196366,0.6283792089948372,0.7258226473284631
16.73084084084084,0.6751680083084785,0.6282668458402444,0.7255704203738161
16.80938938938939,0.6749943234303719,0.6281584985744212,0.7253222517839519
16.887937937937938,0.6748245839412669,0.6280540453205374,0.7250780764561262
16.966486486486488,0.6746586941607056,0.6279533644695912,0.7248378293045515
17.045035035035035,0.6744965585663828,0.6278563346790774,0.7246014452501062
17.123583583583585,0.674338081788843,0.6277628348720227,0.7243688592099581
17.20213213213213,0.6741831686063112,0.6276727442363847,0.7241400060871055
17.280680680680682,0.6740317239396657,0.6275859422248221,0.7239148207598404
17.35922922922923,0.6738836528475409,0.6275023085548173,0.7236932380711301
17.43777777777778,0.6737388605215674,0.6274217232091595,0.7234751928179227
17.516326326326325,0.6735972522817487,0.6273440664367853,0.7232606197403838
17.594874874874876,0.6734587335719702,0.6272692187539641,0.7230494535110578
17.673423423423422,0.6733232099556395,0.6271970609458298,0.722841628723963
17.751971971971972,0.6731905871114678,0.6271274740682585,0.7226370798836292
17.83052052052052,0.6730607708293764,0.6270603394500782,0.7224357413940699
17.90906906906907,0.6729336670065391,0.6269955386956095,0.7222375475477026
17.98761761761762,0.6728091816435601,0.6269329536875382,0.7220424325142233
18.066166166166166,0.6726872208407768,0.626872466590099,0.7218503303294309
18.144714714714716,0.6725676907947022,0.6268139598525811,0.7216611748840193
18.223263263263263,0.6724504977945932,0.6267573162131369,0.7214748999123342
18.301811811811813,0.6723355482191511,0.6267024187028905,0.7212914389811045
18.38036036036036,0.6722227485333562,0.6266491506503424,0.7211107254781578
18.45890890890891,0.672112005285428,0.6265973956860568,0.7209326926011214
18.537457457457457,0.6720032251039192,0.6265470377476255,0.7207572733461226
18.616006006006007,0.6718963146949386,0.6264979610849035,0.7205844004964923
18.694554554554554,0.6717911808395056,0.6264500502655036,0.7204140066114844
18.773103103103104,0.6716877303910285,0.6264031901805361,0.7202460240150127
18.85165165165165,0.6715858702729215,0.6263572660505997,0.7200803847844265
18.9302002002002,0.6714855074763431,0.6263121634319948,0.7199170207393235
19.00874874874875,0.6713865490580656,0.6262677682231589,0.7197558634304143
19.087297297297297,0.671288902138476,0.6262239666713162,0.7195968441284527
19.165845845845848,0.6711924738997037,0.626180645379322,0.7194398938132384
19.244394394394394,0.6710971715838734,0.6261376913126921,0.7192849431627013
19.322942942942944,0.671002902491494,0.6260949918068162,0.7191319225420894
19.40149149149149,0.6709095739799681,0.6260524345743238,0.718980761993259
19.48004004004004,0.6708170934622323,0.6260099077126082,0.7188313912240883
19.558588588588588,0.670725368405529,0.6259672997114883,0.7186837395980289
19.637137137137138,0.6706343063302995,0.6259244994609913,0.7185377361237978
19.715685685685685,0.6705438148092064,0.6258813962592472,0.7183933094452322
19.794234234234235,0.6704538014662907,0.6258378798204902,0.7182503878313237
19.87278278278278,0.670364173976243,0.6257938402831295,0.7181088991664297
19.951331331331332,0.6702748400638142,0.6257491682179035,0.7179687709406971
20.02987987987988,0.6701857075033477,0.6257037546360845,0.7178299302406971
20.10842842842843,0.6700966841184359,0.6256574909977213,0.7176923037402878
20.18697697697698,0.6700076906634242,0.6256102839766722,0.7175558283579523
20.265525525525526,0.6699187090301567,0.6255621105850889,0.7174204912904284
20.344074074074076,0.6698297392142619,0.6255129686712897,0.7172862946213758
20.422622622622622,0.6697407812141714,0.6254628561506826,0.717153240372928
20.501171171171173,0.6696518350283163,0.6254117710033212,0.7170213305026039
20.57971971971972,0.6695629006551257,0.625359711274657,0.7168905669025532
20.65826826826827,0.6694739780930326,0.6253066750762795,0.7167609513988255
20.736816816816816,0.6693850673404684,0.6252526605866294,0.7166324857506494
20.815365365365366,0.669296168395863,0.6251976660516954,0.7165051716497347
