dose,RR,lb,ub
0,1,1,1
0.13015015015015016,0.9907879812872915,0.9892051746809295,0.992373320509553
0.2603003003003003,0.9816684314559695,0.9785358834217714,0.9848110075916944
0.39045045045045046,0.9726478963802179,0.9679994856997565,0.9773186290992479
0.5206006006006006,0.9637326564689344,0.9576029777772512,0.969901571630987
0.6507507507507508,0.9549287343144784,0.9473530046891564,0.9625650450316131
0.7809009009009009,0.9462419027160637,0.9372558726794782,0.9553140871723462
0.9110510510510511,0.9376776930463032,0.9273175620368485,0.9481535689946303
1.0412012012012013,0.9292414039311054,0.9175437402818294,0.9410881998002901
1.1713513513513514,0.9209381102148513,0.9079397756619533,0.9341225327723484
1.3015015015015017,0.9127726721845643,0.8985107509135808,0.9272609707116162
1.4316516516516518,0.904749745028588,0.8892614772528236,0.9205077719751137
1.5618018018018018,0.8968737885071199,0.8801965085609305,0.9138670566033399
1.6919519519519521,0.8891490768138083,0.8713201557326973,0.9073428126244134
1.8221021021021022,0.8815797086094809,0.8626365011595977,0.9009389025241229
1.9522522522522525,0.8741696172109586,0.8541494133224494,0.8946590698719729
2.0824024024024026,0.8669225809197909,0.8458625614715217,0.8885069460943797
2.2125525525525527,0.8598422334776407,0.8377794303750414,0.8824860573872632
2.3427027027027028,0.8529320746369388,0.8299033351200701,0.8765998317613932
2.4728528528528533,0.8461954808373192,0.8222374359526986,0.8708516062149891
2.6030030030030034,0.8396357159802376,0.8147847531474318,0.8652446340292301
2.7331531531531534,0.8332559422960673,0.8075481818985152,0.8597820921835247
2.8633033033033035,0.8270592312998549,0.8005305072287933,0.8544670888886069
2.9934534534534536,0.8210485748338086,0.79373441891447,0.8493026712367742
3.1236036036036037,0.815226894484929,0.7871625244650318,0.8442918315289601
3.253753753753754,0.8095951631445265,0.7808152007022681,0.8394359223507732
3.3839039039039043,0.8041488839693365,0.7746865821060072,0.8347316741064219
3.5140540540540544,0.798882729714352,0.7687698964780312,0.8301750871876035
3.6442042042042044,0.793791547385241,0.7630586152642727,0.8257622784090172
3.7743543543543545,0.7888703506398885,0.7575464423104354,0.8214894762368656
3.904504504504505,0.7841143125190266,0.7522273031380384,0.8173530162123877
4.034654654654655,0.779518758489803,0.7470953347150062,0.8133493365599497
4.164804804804805,0.7750791597870075,0.7421448756959933,0.8094749739702025
4.294954954954956,0.7707911270375081,0.7373704571087514,0.8057265595496023
4.425105105105105,0.7666504041542228,0.7327667934639933,0.8021008149282548
4.555255255255256,0.7626528624866904,0.7283287742673471,0.7985945485186072
4.6854054054054055,0.7587944952160004,0.7240514559131093,0.7952046519179996
4.815555555555556,0.7550714119824987,0.719930053940579,0.7919280964485217
4.9457057057057066,0.7514798337353071,0.7159599356347993,0.7887619298280137
5.075855855855856,0.7480160877932838,0.7121366129545181,0.7857032729663977
5.206006006006007,0.7446766031076052,0.7084557357711299,0.7827493168818519
5.336156156156156,0.7414579057166811,0.7049130854032617,0.7798973197316433
5.466306306306307,0.7383566143846078,0.701504568432518,0.7771446039527019
5.596456456456457,0.7353694364148384,0.6982262107867144,0.7744885535072878
5.726606606606607,0.7324931636311992,0.6950741520776965,0.7719266112293394
5.8567567567567576,0.7297246685187966,0.6920446401815694,0.7694562762673196
5.986906906906907,0.7270609005177716,0.689134026049856,0.7670751016195937
6.117057057057058,0.7244988824632297,0.6863387587407493,0.7647806917585703
6.247207207207207,0.7220357071650404,0.6836553806602517,0.7625707003400332
6.377357357357358,0.7196685341215431,0.6810805230035688,0.7604428279942705
6.507507507507508,0.7173945863615188,0.6786109013876903,0.7583948201957815
6.637657657657658,0.7152111474090985,0.6762433116666077,0.7564244652085009
6.7678078078078086,0.7131155583665709,0.6739746259211183,0.7545295921036421
6.897957957957958,0.7111052151103308,0.6718017886156388,0.7527080688474045
7.028108108108109,0.7091775655954742,0.6697218129148891,0.7509578004559302
7.158258258258259,0.7073301072647996,0.66773177715374,0.7492767272150342
7.288408408408409,0.7055603845582107,0.6658288214539096,0.7476628229623584
7.418558558558559,0.7038659865187457,0.6640101444815755,0.7461140934297184
7.548708708708709,0.7022445444916753,0.6622730003403301,0.7446285746435396
7.6788588588588595,0.7006937299133154,0.6606146955942437,0.7432043313813804
7.80900900900901,0.6992112521863966,0.6590325864161222,0.7418394556826554
7.93915915915916,0.6977948566390223,0.6575240758563531,0.7405320654117747
8.06930930930931,0.6964423225644191,0.6560866112280201,0.7392803028720113
8.19945945945946,0.6951514613388573,0.6547176816042394,0.7380823334685082
8.32960960960961,0.6939201146152771,0.6534148154239293,0.7369363444189285
8.459759759759761,0.6927461525903102,0.6521755782024703,0.7358405435103422
8.589909909909911,0.6916274723425319,0.6509975703439407,0.7347931579010263
8.72006006006006,0.690561996239917,0.6498784250518296,0.7337924329659458
8.85021021021021,0.6895476704146059,0.6488158063353371,0.7328366311847567
8.980360360360361,0.688582463303213,0.6478074071085621,0.7319240310712618
9.110510510510512,0.6876643642510244,0.6468509473800568,0.7310529261433144
9.240660660660662,0.6867913821785525,0.6459441725304002,0.7302216239322566
9.370810810810811,0.6859615443090171,0.6450848516756005,0.7294284450310389
9.500960960960962,0.6851728949554272,0.6442707761142817,0.7286717221802514
9.631111111111112,0.6844234943660351,0.643499757856752,0.7279497993913644
9.761261261261263,0.6837114176270233,0.6427696282341714,0.7272610311065446
9.891411411411413,0.683034753621376,0.6420782365861653,0.7266037813944903
10.021561561561562,0.6823916040429676,0.6414234490253256,0.725976423181792
10.151711711711712,0.6817800824649736,0.6408031472771496,0.7253773375193928
10.281861861861863,0.6811983134617926,0.6402152275940536,0.7248049128838008
10.412012012012013,0.6806444317837266,0.6396575997421761,0.7242575445127565
10.542162162162164,0.6801165815837353,0.6391281860597613,0.7237336337751415
10.672312312312313,0.6796129156956446,0.6386249205859776,0.7232315875749694
10.802462462462463,0.6791315949632372,0.6381457482590779,0.7227498177893712
10.932612612612614,0.6786707876197134,0.6376886241828587,0.7222867407405497
11.062762762762764,0.6782286687170551,0.6372515129604185,0.7218407767017424
11.192912912912915,0.6778034196048677,0.6368323880942404,0.721410349437294
11.323063063063064,0.6773932274583228,0.6364292314516593,0.7209938857770022
11.453213213213214,0.6769962848548542,0.6360400327947889,0.7205898152249607
11.583363363363365,0.6766107893992972,0.6356627893739965,0.7201965696031787
11.713513513513515,0.6762349433971893,0.6352955055840248,0.7198125827303175
11.843663663663666,0.6758669535759755,0.6349361926818595,0.7194362901359312
11.973813813813814,0.6755050308538887,0.6345828685654413,0.7190661288106559
12.103963963963965,0.6751473901562869,0.6342335576123143,0.7187005369928334
12.234114114114115,0.6747922502792485,0.6338862905772894,0.7183379539921001
12.364264264264266,0.6744379340999649,0.6335392153012319,0.717976908085715
12.494414414414415,0.674083812143887,0.6331916382225335,0.7176168451465579
12.624564564564565,0.6737298761239097,0.63284355213665755,0.7172577558061618
12.754714714714716,0.6733761259424056,0.632494958919734,0.7168996378463551
12.884864864864866,0.6730225615017974,0.6321458604827527,0.7165424890143673
13.015015015015017,0.6726691827045593,0.6317962587712308,0.7161863070231651
13.145165165165166,0.6723159894532179,0.6314461557648695,0.7158310895517956
13.275315315315316,0.6719629816503495,0.6310955534772004,0.7154768342457362
13.405465465465467,0.6716101591985816,0.6307444539552278,0.7151235387172532
13.535615615615617,0.6712575220005945,0.6303928592790644,0.7147712005457717
13.665765765765768,0.6709050699591177,0.6300407715615526,0.7144198172782447
13.795915915915916,0.6705528029769328,0.6296881929478858,0.7140693864295378
13.926066066066067,0.6702007209568713,0.6293351256152193,0.7137199054828155
14.056216216216217,0.6698488238018175,0.6289815717722759,0.7133713718899387
14.186366366366368,0.6694971114147054,0.6286275336589422,0.7130237830718639
14.316516516516518,0.66914558369852,0.6282730135458613,0.7126771364190525
14.446666666666667,0.6687942405562979,0.627918013734018,0.7123314292918862
14.576816816816818,0.6684430818911269,0.6275625365543186,0.7119866590210866
14.706966966966968,0.6680921076061438,0.6272065843671614,0.71164282290814
14.837117117117119,0.6677413176045381,0.6268501595620094,0.7112999182257325
14.96726726726727,0.6673907117895497,0.6264932645569495,0.7109579422181849
15.097417417417418,0.6670402900644686,0.6261359017982504,0.7106168921018957
15.227567567567569,0.6666900523326371,0.6257780737599163,0.7102767650657896
15.357717717717719,0.6663399984974469,0.6254197829432331,0.7099375582717672
15.48786786786787,0.6659901284623401,0.6250610318763112,0.7095992688551631
15.61801801801802,0.6656404421308104,0.624701823113627,0.7092618939252071
15.748168168168169,0.6652909394064019,0.6243421592355555,0.7089254305654882
15.87831831831832,0.66494162019271,0.6239820428479033,0.7085898758344243
16.00846846846847,0.6645924843933804,0.6236214765814347,0.7082552267657333
16.13861861861862,0.6642435319121089,0.6232604630913958,0.7079214803689093
16.26876876876877,0.6638947626526411,0.6228990050570344,0.7075886336297003
16.39891891891892,0.663546176518775,0.622537105181122,0.7072566835105927
16.52906906906907,0.6631977734143583,0.622174766189466,0.7069256269512931
16.65921921921922,0.6628495532432885,0.6218119908304223,0.7065954608692164
16.78936936936937,0.662501515909514,0.6214487818744072,0.706266182159974
16.919519519519522,0.6621536613170351,0.6210851421134078,0.7059377876978677
17.049669669669672,0.6618059893699009,0.6207210743604844,0.7056102743363789
17.179819819819823,0.6614584999722106,0.6203565814492784,0.7052836389086655
17.30996996996997,0.6611111930281156,0.6199916662335168,0.704957878228058
17.44012012012012,0.6607640684418145,0.6196263315865109,0.7046329890885542
17.57027027027027,0.660417126117558,0.6192605804006629,0.7043089682653207
17.70042042042042,0.6600703659596491,0.618894415586966,0.7039858125151919
17.830570570570572,0.6597237878724386,0.6185278400745016,0.7036635185771658
17.960720720720722,0.659377391760327,0.6181608568099404,0.7033420831729057
18.090870870870873,0.6590311775277674,0.6177934687570457,0.7030215030072419
18.221021021021024,0.65868514507926,0.6174256788961672,0.702701774768667
18.351171171171174,0.6583392943193582,0.6170574902237488,0.7023828951298415
18.481321321321325,0.6579936251526646,0.6166889057518238,0.7020648607480885
18.61147147147147,0.6576481374838287,0.6163199285075148,0.7017476682658905
18.741621621621622,0.6573028312175565,0.6159505615325457,0.7014313143113955
18.871771771771773,0.656957706258597,0.6155808078827304,0.7011157954989015
19.001921921921923,0.6566127625117553,0.6152106706274924,0.7008011084293635
19.132072072072074,0.6562679998818832,0.614840152849359,0.7004872496908795
19.262222222222224,0.6559234182738809,0.6144692576434717,0.7001742158591837
19.392372372372375,0.6555790175927024,0.614097988117101,0.6998620034981424
19.522522522522525,0.65523479774335,0.6137263473891514,0.6995506091602381
19.652672672672676,0.6548907586308749,0.6133543385896755,0.6992400293870557
19.782822822822826,0.6545469001603788,0.6129819648593907,0.6989302607097697
19.912972972972973,0.6542032222370149,0.6126092293491988,0.698621299649626
20.043123123123124,0.6538597247659833,0.6122361352197006,0.6983131427184179
20.173273273273274,0.653516407652536,0.6118626856407252,0.6980057864189672
20.303423423423425,0.6531732708019727,0.6114888837908509,0.6976992272455936
20.433573573573575,0.6528303141196459,0.6111147328569394,0.6973934616845917
20.563723723723726,0.6524875375109548,0.6107402360336626,0.697088486214692
20.693873873873876,0.65214494088135,0.6103653965230411,0.6967842973075306
20.824024024024027,0.651802524136332,0.6099902175339827,0.6964808914281078
20.954174174174177,0.6514602871814488,0.6096147022818215,0.6961782650352447
21.084324324324328,0.6511182299223008,0.6092388539878694,0.6958764145820413
21.214474474474475,0.6507763522645363,0.6088626758789603,0.6955753365163218
21.344624624624625,0.6504346541138513,0.608486171187004,0.6952750272810819
21.474774774774776,0.6500931353759961,0.6081093431485514,0.6949754833149367
21.604924924924926,0.6497517959567658,0.6077321950043442,0.6946767010525496
21.735075075075077,0.6494106357620084,0.607354729998891,0.6943786769250749
21.865225225225227,0.6490696546976182,0.6069769513800295,0.6940814073605802
21.995375375375378,0.6487288526695434,0.6065988623985096,0.6937848887844802
22.12552552552553,0.6483882295837764,0.6062204663075618,0.6934891176199471
22.25567567567568,0.6480477853463628,0.6058417663624907,0.6931940902883363
22.38582582582583,0.6477075198633933,0.6054627658202535,0.6928998032095903
22.515975975975977,0.6473674330410123,0.6050834679390641,0.6926062528026532
22.646126126126127,0.6470275247854127,0.6047038759779829,0.6923134354858683
22.776276276276278,0.6466877950028354,0.6043239931965207,0.6920213476773751
22.906426426426428,0.6463482435995722,0.603943822854249,0.6917299857955038
23.03657657657658,0.6460088704819611,0.6035633682104063,0.6914393462591587
23.16672672672673,0.6456696755563914,0.603182632523523,0.6911494254882048
23.29687687687688,0.6453306587293014,0.6028016190510398,0.6908602199038432
23.42702702702703,0.6449918199071769,0.6024203310489357,0.69057172592898175
23.55717717717718,0.6446531589965555,0.6020387717713647,0.6902839399886052
23.68732732732733,0.6443146759040224,0.6016569444702894,0.6899968585101334
23.81747747747748,0.6439763705362122,0.6012748523951272,0.6897104779237788
23.94762762762763,0.6436382427998071,0.6008924987923974,0.6894247946628966
24.07777777777778,0.6433002926015422,0.6005098869053802,0.6891398051643336
24.20792792792793,0.6429625198481966,0.6001270199737684,0.6888555058687618
24.33807807807808,0.6426249244466006,0.5997439012333383,0.6885718932210181
24.46822822822823,0.6422875063036372,0.5993605339156244,0.6882889636704368
24.59837837837838,0.6419502653262286,0.5989769212475782,0.6880067136711596
24.728528528528532,0.6416132014213556,0.5985930664512729,0.6877251396824723
24.858678678678682,0.641276314496044,0.5982089727435742,0.6874442381691049
24.98882882882883,0.6409396044573643,0.5978246433358331,0.6871640056015392
25.11897897897898,0.6406030712124455,0.5974400814335991,0.686884438456323
25.24912912912913,0.640266714668462,0.5970552902363088,0.686605533216354
25.37927927927928,0.639930534732629,0.5966702729369907,0.686327286371167
25.50942942942943,0.6395945313122163,0.5962850327219948,0.6860496944172318
25.639579579579582,0.639258704314544,0.5958995727707069,0.6857727538582286
25.769729729729733,0.6389230536469798,0.5955138962552724,0.6854964612053202
25.899879879879883,0.6385875792169329,0.5951280063403206,0.6852208129774148
26.030030030030034,0.6382522809318782,0.5947419061827266,0.6849458057014525
26.160180180180184,0.6379171586993247,0.5943555989313203,0.6846714359126321
26.29033033033033,0.6375822124268354,0.5939690877266546,0.6843977001546843
26.42048048048048,0.6372474420220146,0.5935823757007452,0.6841245949801049
26.550630630630632,0.6369128473925237,0.593195465976846,0.683852116950412
26.680780780780783,0.6365784284460664,0.5928083616691958,0.6835802626363677
26.810930930930933,0.6362441850904056,0.5924210658828066,0.6833090286182254
26.941081081081084,0.6359101172333422,0.5920335817132156,0.6830384114859347
27.071231231231234,0.6355762247827255,0.5916459122462752,0.6827684078393711
27.201381381381385,0.6352425076464613,0.591258060557947,0.6824990142885599
27.331531531531535,0.6349089657324942,0.5908700297140735,0.6822302274538669
27.461681681681686,0.6345755989488231,0.59048182277019,0.6819620439662191
27.591831831831833,0.6342424072034936,0.5900934427713171,0.6816944604672958
27.721981981981983,0.6339093904045996,0.5897048927517683,0.6814274736097247
27.852132132132134,0.6335765484602819,0.5893161757349591,0.6811610800572687
27.982282282282284,0.6332438812787355,0.5889272947332318,0.6808952764850177
28.112432432432435,0.6329113887681962,0.5885382527476609,0.6806300595795535
28.242582582582585,0.6325790708369475,0.588149052767888,0.6803654260391316
28.372732732732736,0.6322469273933274,0.5877596977719586,0.6801013725738553
28.502882882882886,0.6319149583457209,0.5873701907261506,0.6798378959058331
28.633033033033037,0.6315831636025574,0.5869805345848121,0.679574992769336
28.763183183183187,0.6312515430723161,0.5865907322902135,0.6793126599109556
28.893333333333334,0.6309200966635266,0.5862007867723961,0.6790508940897556
29.023483483483485,0.6305888242847604,0.5858107009490207,0.6787896920774081
29.153633633633635,0.6302577258446441,0.5854204777252394,0.6785290506583469
29.283783783783786,0.6299268012518446,0.5850301199935448,0.6782689666298879
29.413933933933937,0.629596050415086,0.5846396306336565,0.6780094368023775
29.544084084084087,0.6292654732431339,0.5842490125123776,0.6777504579993042
29.674234234234238,0.6289350696448031,0.5838582684834809,0.6774920270574277
29.804384384384388,0.6286048395289586,0.583467401387591,0.6772341408268977
29.93453453453454,0.6282747828045082,0.583076414052064,0.6769767961713605
30.06468468468469,0.6279448993804088,0.5826853092908844,0.6767199899680746
30.194834834834836,0.6276151891656736,0.582294089904567,0.6764637191080218
30.324984984984987,0.627285652069353,0.5819027586800369,0.6762079804959906
30.455135135135137,0.6269562880005513,0.5815113183905488,0.6759527710506875
30.585285285285288,0.6266270968684161,0.5811197717955848,0.6756980877048223
30.715435435435438,0.6262980785821421,0.5807281216407677,0.6754439274051971
30.84558558558559,0.6259692330509778,0.580336370657784,0.6751902871127997
30.97573573573574,0.6256405601842188,0.5799445215642964,0.6749371638028776
31.10588588588589,0.6253120598912008,0.5795525770638587,0.6746845544650079
31.23603603603604,0.624983732081312,0.5791605398458547,0.674432456103183
31.36618618618619,0.6246555766639973,0.5787684125854339,0.6741808657358838
31.496336336336338,0.6243275935487245,0.5783761979434096,0.6739297803961138
31.62648648648649,0.6239997826450314,0.5779838985662459,0.6736791971315063
31.75663663663664,0.6236721438624953,0.5775915170859662,0.6734291130043534
31.88678678678679,0.6233446771107478,0.5771990561201136,0.6731795250916772
32.01693693693694,0.6230173822994571,0.5768065182716804,0.6729304304852636
32.14708708708709,0.622690259338342,0.5764139061290737,0.6726818262917238
32.27723723723724,0.6223633081371733,0.5760212222660718,0.6724337096325429
32.40738738738739,0.6220365286057671,0.5756284692417739,0.6721860776441138
32.53753753753754,0.6217099206539798,0.5752356496005574,0.6719389274777718
32.66768768768769,0.6213834841917307,0.5748427658720643,0.6716922562998529
32.79783783783784,0.6210572191289726,0.574449820571138,0.671446061291697
32.92798798798799,0.6207311253757131,0.5740568161978161,0.6712003396496994
33.05813813813814,0.6204052028419977,0.5736637552372857,0.6709550885853198
33.18828828828829,0.6200794514379272,0.5732706401598767,0.6707103053251251
33.31843843843844,0.6197538710736478,0.5728774734210311,0.6704659871107981
33.44858858858859,0.6194284616593576,0.5724842574612916,0.67022213119916485
33.57873873873874,0.6191032231052832,0.5720909947062608,0.669978734862186
33.70888888888889,0.6187781553217359,0.5716976875666467,0.6697357953870234
33.839039039039044,0.6184532582190329,0.5713043384381719,0.6694933100759767
33.969189189189194,0.6181285317075611,0.5709109497016295,0.6692512762465498
34.099339339339345,0.6178039756977511,0.5705175237228527,0.669009691231433
34.229489489489495,0.6174795901000788,0.5701240628527131,0.6687685523785059
34.359639639639646,0.6171553748250656,0.5697305694271206,0.668527857050839
34.489789789789796,0.6168313297832847,0.5693370457670309,0.6682876026266972
