dose,RR,lb,ub
0,1,1,1
0.07854854854854855,0.9959582431416455,0.9949665280774592,0.9969509466800575
0.1570970970970971,0.9919333988330274,0.989959143558766,0.9939115913242067
0.23564564564564566,0.9879259684777058,0.9849784553491453,0.9908823019348691
0.3141941941941942,0.9839364445229154,0.9800250580595469,0.9878634417545393
0.39274274274274273,0.9799653105600854,0.9750995322025635,0.9848553693097546
0.4712912912912913,0.9760130414277055,0.9702024443917204,0.9818584384563207
0.5498398398398399,0.9720801033164579,0.9653343475439593,0.9788729984257656
0.6283883883883884,0.9681669538765294,0.960495781085143,0.9758993938729928
0.7069369369369369,0.9642740423270224,0.95568727115841,0.972937964925111
0.7854854854854855,0.9604018095673856,0.9509093308352152,0.9699890472314109
0.864034034034034,0.9565506882907867,0.9461624603288947,0.9670529720144668
0.9425825825825827,0.9527211030993481,0.9414471472105977,0.9641300661223364
1.021131131131131,0.9489134706211754,0.9367638666274344,0.9612206520818356
1.0996796796796797,0.9451281996291011,0.9321130815226902,0.9583250481528635
1.1782282282282281,0.941365691161077,0.9274952428579638,0.955443568383757
1.2567767767767768,0.9376263386421415,0.9229107898370882,0.9525765226676499
1.3353253253253254,0.933910528007899,0.918360150131701,0.9497242167998176
1.4138738738738739,0.9302186378294425,0.9138437401083325,0.9468869525359825
1.4924224224224225,0.9265510394396574,0.9093619650568843,0.9440650276515659
1.570970970970971,0.9229080970608449,0.9049152194203779,0.9412587360018592
1.6495195195195196,0.919290167933603,0.9005038870258542,0.9384683675831025
1.728068068068068,0.9156976024469103,0.89612834131631,0.9356942085944477
1.8066166166166167,0.9121307442693547,0.8917889455835634,0.9329365415007913
1.8851651651651653,0.9085899304814515,0.8874860532019407,0.9301956450964584
1.9637137137137137,0.9050754917090021,0.8832200078626872,0.9274717945697238
2.042262262262262,0.9015877522574396,0.8789911438090008,0.924765261568155
2.120810810810811,0.8981270302471145,0.8747997860715997,0.9220763142647602
2.1993593593593594,0.8946936377494743,0.8706462507047326,0.9194052174249332
2.277907907907908,0.8912878809240908,0.8665308450225482,0.9167522324741771
2.3564564564564563,0.8879100601564943,0.862453867835744,0.9141176175665998
2.435005005005005,0.8845604701967726,0.8584156096884158,0.9115016276541675
2.5135535535535536,0.8812394002988966,0.8544163530950376,0.908904514556709
2.592102102102102,0.8779471343607349,0.8504563727775013,0.9063265270326603
2.670650650650651,0.8746839510647245,0.8465359359021524,0.9037679108505429
2.7491991991991993,0.8714501240191613,0.8426553023167598,0.9012289088611688
2.8277477477477477,0.8682459219000825,0.8388147247873631,0.8987097610705667
2.906296296296296,0.8650716085937087,0.8350144492349428,0.8962107047136241
2.984844844844845,0.8619274433394216,0.8312547149718639,0.893731974328444
3.0633933933933934,0.8588136808732495,0.827535754938046,0.8912738018314117
3.141941941941942,0.8557305715718374,0.8238577959368166,0.8888364165929714
3.2204904904904907,0.8526783615968822,0.8202210588704097,0.8864200455141138
3.299039039039039,0.84965729304001,0.8166257589750706,0.8840249131035746
3.3775875875875876,0.8466676040680817,0.8130721060557364,0.881651241555747
3.456136136136136,0.8437095290689073,0.8095603047202619,0.879299250829314
3.534684684684685,0.8407832987973575,0.806090554613163,0.8769691587266031
3.6132332332332333,0.8378891405218596,0.8026630506488578,0.8746611809736723
3.6917817817817817,0.8350272781712679,0.7992779832443796,0.8723755313011357
3.7703303303303306,0.8321979324821,0.7959355385515502,0.8701124215257379
3.848878878878879,0.8294013211461325,0.7926358986885947,0.8678720616326893
3.9274274274274275,0.8266376589583531,0.7893792419711881,0.8656546598587749
4.005975975975976,0.8239071579652633,0.7861657431429244,0.8634604227762537
4.084524524524524,0.8212100100906656,0.7829955518196858,0.8612895425853121
4.163073073073073,0.8185461012309769,0.7798684374564472,0.8591419881354678
4.241621621621622,0.815915062248979,0.776783854201792,0.8570175412423237
4.3201701701701705,0.8133165210092803,0.7737412547483852,0.8549159803579927
4.398718718718719,0.8107501105082986,0.7707401003956222,0.8528370865247793
4.477267267267267,0.8082154687883962,0.7677798608904658,0.8507806433360416
4.555815815815816,0.8057122388535224,0.764860014271185,0.8487464368979134
4.634364364364364,0.803240068586334,0.7619800467139637,0.8467342557918387
4.712912912912913,0.800798610666765,0.7591394523823429,0.844743891037874
4.791461461461462,0.7983875224920162,0.7563377332794574,0.8427751360587213
4.87001001001001,0.7960064660979368,0.753574399103026,0.8408277866444592
4.948558558558559,0.7936551080817723,0.7508489671030519,0.8389016409179388
5.027107107107107,0.7913331195262497,0.7481609619421881,0.8369964993008205
5.105655655655656,0.7890401759249749,0.745509915558723,0.8351121644802254
5.184204204204204,0.7867759571091167,0.7428953670321407,0.8332484413759785
5.2627527527527524,0.7845401471753534,0.7403168624512066,0.8314051371084259
5.341301301301302,0.7823324344150538,0.7377739547845359,0.8295820609668034
5.41984984984985,0.780152511244674,0.7352662037535941,0.8277790243781433
5.498398398398399,0.778000074137341,0.7327931757080859,0.8259958408767002
5.576946946946947,0.7758748235556039,0.7303544435036854,0.8242323260738836
5.6554954954954955,0.773776463885329,0.7279495863820606,0.8224882976286813
5.734044044044044,0.7717047033707155,0.7255781898531494,0.8207635752185629
5.812592592592592,0.7696592540504128,0.723239845579639,0.8190579805108495
5.891141141141142,0.7676398316947144,0.7209341512636084,0.8173713371345387
5.96968968968969,0.7656461557438125,0.7186607105352862,0.8157034706525746
6.0482382382382385,0.7636779492470885,0.7164191328438845,0.8140542085345526
6.126786786786787,0.761734938803423,0.714209033350464,0.8124233801298469
6.205335335335335,0.7598168545025024,0.712030032822791,0.8108108166411567
6.283883883883884,0.7579234298671069,0.7098817575321428,0.8092163510984558
6.362432432432432,0.7560544017963587,0.7077638391520251,0.8076398183333414
6.4409809809809815,0.7542095105099119,0.7056759146587587,0.8060810549537732
6.51952952952953,0.7523884994930685,0.7036176262338991,0.8045398993191937
6.598078078078078,0.7505911154427999,0.7015886211684503,0.8030161915160227
6.676626626626627,0.7488171082146601,0.6995885517688367,0.80150977333352
6.755175175175175,0.7470662307705705,0.6976170752645953,0.8000204882400073
6.833723723723724,0.7453382391274631,0.6956738537177541,0.7985481813594424
6.912272272272272,0.7436328923067621,0.693758553933862,0.7970926994483423
6.990820820820821,0.7419499522846926,0.6918708473746344,0.7956538908730436
7.06936936936937,0.740289183943397,0.6900104100721832,0.7942316055872992
7.147917917917918,0.7386503550228469,0.6881769225447976,0.7928256951102006
7.226466466466467,0.7370332360735327,0.6863700697142431,0.7914360125044236
7.305015015015015,0.7354376004099198,0.6845895408245495,0.7900624123547889
7.3835635635635635,0.7338632240646544,0.682835029362255,0.7887047507471339
7.462112112112112,0.7323098857435066,0.6811062329780785,0.7873628852474883
7.540660660660661,0.7307773667810357,0.6794028534099879,0.7860366748815505
7.61920920920921,0.7292654510969657,0.6777245964076412,0.7847259801144568
7.697757757757758,0.7277739251532579,0.6760711716581657,0.7834306628308407
7.7763063063063065,0.7263025779118658,0.674442292713253,0.7821505863151753
7.854854854854855,0.7248512007931626,0.6728376769175411,0.7808856152323951
7.933403403403403,0.7234195876350266,0.671257045338258,0.7796356156087924
8.011951951951952,0.722007534652574,0.6697001226960997,0.7784004548131819
8.0905005005005,0.7206148403985261,0.6681666372973203,0.7771800015383316
8.169049049049049,0.7192413057242006,0.6666563209670076,0.7759741257826525
8.247597597597597,0.717886733741114,0.665168908983521,0.7747826988321439
8.326146146146145,0.7165509297831859,0.6637041400140692,0.7736055932425919
8.404694694694696,0.7152337013695329,0.6622617560514028,0.7724426828220116
8.483243243243244,0.7139348581678417,0.6608415023516027,0.7712938426133342
8.561791791791793,0.7126542119583119,0.6594431273729383,0.7701589488773318
8.640340340340341,0.7113915765981565,0.6580663827157791,0.7690378790757761
8.71888888888889,0.710146767986652,0.6567110230635351,0.7679305118548271
8.797437437437438,0.708919604030727,0.655376806124607,0.7668367270286484
8.875985985985986,0.70770990461108,0.654063492575327,0.7657564055632439
8.954534534534535,0.7065174915488174,0.6527708460038703,0.7646894295605132
9.033083083083083,0.7053421885726017,0.6514986328551174,0.7636356822425213
9.111631631631631,0.7041838212863014,0.6502466223764514,0.762595047935978
9.19018018018018,0.7030422171371338,0.6490145865644681,0.7615674120569244
9.268728728728728,0.7019172053842913,0.6478023001125867,0.7605526610956231
9.347277277277277,0.7008086170680442,0.6466095403595387,0.7595506826016467
9.425825825825825,0.6997162849793096,0.645436087238721,0.7585613651691618
9.504374374374375,0.69864004362968,0.6442817232283969,0.7575845984224066
9.582922922922924,0.6975797292219025,0.6431462333027278,0.7566202730013545
9.661471471471472,0.6965351796208018,0.6420294048836209,0.7556682805475655
9.74002002002002,0.6955062343246381,0.6409310277933769,0.754728513690217
9.818568568568569,0.6944927344368933,0.6398508942081236,0.7538008660323126
9.897117117117118,0.6934945226384778,0.6387887986120211,0.7528852321370678
9.975665665665666,0.6925114431603506,0.637744537752223,0.7519815075144639
10.054214214214214,0.6915433417565464,0.6367179105945814,0.7510895886079719
10.132762762762763,0.690590065677601,0.6357087182800815,0.7502093727814403
10.211311311311311,0.68965146364437,0.634716764081993,0.749340758306143
10.28985985985986,0.6887273858222341,0.6337418533637246,0.7484836443479876
10.368408408408408,0.6878176837956829,0.6327837935373712,0.7476379309548764
10.446956956956956,0.6869222105432718,0.6318423940229398,0.7468035190442184
10.525505505505505,0.686040820412947,0.6309174662082413,0.74598031039059165
10.604054054054053,0.6851733690977304,0.6300088234094415,0.7451682076135493
10.682602602602604,0.6843197136117585,0.6291162808322538,0.7443671141655669
10.761151151151152,0.6834797122666721,0.6282396555337674,0.7435769343201295
10.8396996996997,0.6826532246483481,0.6273787663848982,0.742797573159954
10.918248248248249,0.6818401115939684,0.6265334340334524,0.7420289365653431
10.996796796796797,0.6810402351694217,0.6257034808677936,0.7412709312026696
11.075345345345346,0.6802534586470316,0.6248887309811016,0.7405234645129859
11.153893893893894,0.6794796464836061,0.6240890101362166,0.7397864447007569
11.232442442442442,0.6787186642988035,0.6233041457310556,0.73905978072271294
11.310990990990991,0.6779703788538087,0.6225339667645963,0.7383433822768193
11.38953953953954,0.6772346580303169,0.6217783038034153,0.7376371597913596
11.468088088088088,0.676511370809817,0.6210369889487762,0.7369410244141298
11.546636636636636,0.6758003872531734,0.6203098558042576,0.73625488800174
11.625185185185185,0.6751015784804979,0.6195967394439108,0.7355786631090203
11.703733733733733,0.6744148166513103,0.6188974763809447,0.7349122629785285
11.782282282282283,0.6737399749449813,0.6182119045369258,0.7342556015301565
11.860830830830832,0.6730769275414539,0.6175398632114871,0.7336085933508308
11.93937937937938,0.6724255496022388,0.616881193052541,0.7329711536843073
12.017927927927929,0.6717857172516808,0.6162357360269864,0.7323431984210533
12.096476476476477,0.6711573075584901,0.6156033353919059,0.731724644088217
12.175025025025025,0.670540198517536,0.6149838356662444,0.7311154078396794
12.253573573573574,0.669934269031899,0.6143770826029655,0.7305154074461867
12.332122122122122,0.669339398895176,0.6137829231616773,0.7299245612855595
12.41067067067067,0.6687554687740374,0.6132012054817239,0.7293427883329757
12.489219219219219,0.66818236019103,0.6126317788557355,0.7287700081513252
12.567767767767767,0.6676199555076228,0.6120744937036329,0.7282061408816304
12.646316316316316,0.6670681379074939,0.6115292015470797,0.7276511072335337
12.724864864864864,0.6665267913800519,0.6109957549843802,0.7271048284758451
12.803413413413413,0.6659958007041917,0.6104740076658147,0.7265672264271497
12.881961961961963,0.6654750514322783,0.6099638142694095,0.726038223446468
12.960510510510511,0.6649644298743584,0.609465030477138,0.7255177424239724
13.03905905905906,0.6644638230825949,0.6089775129515461,0.7250057067717496
13.117607607607608,0.6639731188359201,0.6085011193128007,0.7245020404146112
13.196156156156157,0.6634922056249087,0.6080357081161557,0.7240066677809466
13.274704704704705,0.6630209726368625,0.6075811388298317,0.723519513793616
13.353253253253254,0.662559309741108,0.6071372718133063,0.7230405038608807
13.431801801801802,0.6621071074745016,0.606703968296014,0.7225695638673663
13.51035035035035,0.6616642570271414,0.6062810903564456,0.722106620165058
13.588898898898899,0.6612306502282812,0.6058685009016529,0.7216515995643217
13.667447447447447,0.6608061795324464,0.6054660636471496,0.7212044293249522
13.745995995995996,0.6603907380057458,0.6050736430972062,0.7207650371472396
13.824544544544544,0.6599842193123806,0.6046911045255401,0.7203333511630569
13.903093093093092,0.6595865177013465,0.6043183139563933,0.7199092999269612
13.981641641641643,0.6591975279933242,0.6039551381459995,0.719492812407308
14.060190190190191,0.658817145567761,0.6036014445644353,0.719083817977374
14.13873873873874,0.6584452663501371,0.6032571013778557,0.7186822464064867
14.217287287287288,0.6580817867994151,0.6029219774311095,0.7182880278511561
14.295835835835836,0.6577266038956726,0.6025959422307354,0.7179010928462074
14.374384384384385,0.6573796151279137,0.6022788659283352,0.7175213722959107
14.452932932932933,0.6570407184820577,0.6019706193043224,0.7171487974651038
14.531481481481482,0.6567098124291039,0.6016710737520448,0.7167832999703072
14.61003003003003,0.6563867959134695,0.6013801012622811,0.716424811770827
14.688578578578579,0.6560715683414995,0.6010975744081074,0.7160732651598424
14.767127127127127,0.6557640295701466,0.6008233663301349,0.7157285927554772
14.845675675675675,0.6554640798958181,0.6005573507221147,0.7153907274918493
14.924224224224224,0.6551716200433901,0.600299401816912,0.7150596026100974
15.002772772772772,0.6548865511553861,0.6000493943728458,0.7147351516493826
15.081321321321322,0.6546087747813177,0.5998072036603934,0.7144173084378606
15.15986986986987,0.6543381928671875,0.5995727054492609,0.7141060070836227
15.23841841841842,0.6540747077451506,0.5993457759958152,0.7138011819656027
15.316966966966968,0.6538182221233356,0.5991262920308804,0.71350276772444865
15.395515515515516,0.6535686390758206,0.5989141307478945,0.7132106992533538
15.474064064064065,0.6533258620327659,0.5987091697914275,0.7129249116888474
15.552612612612613,0.6530897947706983,0.598511287246059,0.7126453404015421
15.631161161161161,0.6528603414029517,0.5983203616256169,0.7123719209868351
15.70970970970971,0.6526374063702528,0.5981362718627707,0.7121045892555602
15.788258258258258,0.652420894431463,0.5979588972989873,0.7118432812245925
15.866806806806807,0.6522107106544646,0.5977881176748402,0.7115879331073982
15.945355355355355,0.652006760407193,0.5976238131206735,0.711338481304531
16.023903903903904,0.6518089493488218,0.5974658641476281,0.7110948623940755
16.102452452452454,0.6516171834210835,0.5973141516390121,0.7108570131220276
16.181001001001,0.6514313688397421,0.597168556842034,0.7106248703926229
16.25954954954955,0.6512514120862032,0.5970289613598828,0.7103983712585987
16.338098098098097,0.6510772198992685,0.5968952471441619,0.7101774529113983
16.416646646646647,0.6509086992670287,0.5967672964876717,0.7099620526713093
16.495195195195194,0.650745757418899,0.5966449920175451,0.7097521079775422
16.573743743743744,0.6505883018177899,0.5965282166887272,0.7095475563782401
16.65229229229229,0.6504362401524185,0.5964168537778045,0.7093483355204256
16.73084084084084,0.6502894803297553,0.596310786877179,0.70915438313988155
16.80938938938939,0.6501479304676071,0.5962098998895864,0.7089656370509646
16.887937937937938,0.6500114988873353,0.5961140770229572,0.7087820351363531
16.966486486486488,0.6498800941067089,0.5960232027856178,0.7086035153367288
17.045035035035035,0.6497536248328905,0.5959371619818326,0.708430015640392
17.123583583583585,0.649631999955555,0.5958558397076809,0.7082614740728103
17.20213213213213,0.6495151285401419,0.595779121347271,0.7080978286861036
17.280680680680682,0.6494029198212368,0.5957068925692853,0.7079390175484631
17.35922922922923,0.6492952831960853,0.5956390393238584,0.7077849787335087
17.43777777777778,0.6491921282182368,0.5955754478397802,0.7076356503095822
17.516326326326325,0.649093364591317,0.5955160046220265,0.7074909703289824
17.594874874874876,0.6489989021629302,0.5954605964496108,0.7073508768171388
17.673423423423422,0.6489086509186895,0.5954091103737558,0.7072153077617301
17.751971971971972,0.6488225209763757,0.595361433716382,0.7070842011017484
17.83052052052052,0.6487404225802212,0.5953174540689058,0.7069574947165089
17.90906906906907,0.648662266095323,0.5952770592913498,0.7068351264146119
17.98761761761762,0.6485879620021812,0.5952401375117562,0.7067170339228587
18.066166166166166,0.6485174208913633,0.5952065771259019,0.7066031548751234
18.144714714714716,0.6484505534582934,0.5951762667973093,0.7064934268011844
18.223263263263263,0.6483872704981676,0.5951490954575508,0.7063877871155221
18.301811811811813,0.6483274829009925,0.5951249523068386,0.7062861731060823
18.38036036036036,0.64827110164675,0.5951037268148982,0.7061885219230152
18.45890890890891,0.6482180378006828,0.5950853087221182,0.706094770567388
18.537457457457457,0.6481682025087063,0.5950695880409712,0.7060048558798833
18.616006006006007,0.6481215069929432,0.5950564550577022,0.7059187145294822
18.694554554554554,0.6480778625473791,0.5950458003342748,0.7058362830021425
18.773103103103104,0.6480371805336427,0.5950375147105721,0.7057574975894737
18.85165165165165,0.6479993723769083,0.5950314893068452,0.7056822943774189
18.9302002002002,0.6479643495619181,0.5950276155263996,0.705610609234945
19.00874874874875,0.6479320236291293,0.5950257850585191,0.705542377802755
19.087297297297297,0.6479023061709811,0.5950258898816122,0.7054775354820204
19.165845845845848,0.6478751088282835,0.5950278222665794,0.7054160174231497
19.244394394394394,0.6478503432867266,0.5950314747803908,0.7053577585145937
19.322942942942944,0.6478279212735125,0.595036740289868,0.7053026933716995
19.40149149149149,0.6478077545541064,0.595043511965659,0.7052507563256187
19.48004004004004,0.6477897549291095,0.5950516832864027,0.7052018814122807
19.558588588588588,0.6477738342312513,0.5950611480430683,0.7051560023614359
19.637137137137138,0.6477599043225044,0.5950718003434677,0.7051130525857829
19.715685685685685,0.6477478770913165,0.5950835346169246,0.7050729651701815
19.794234234234235,0.6477376644499657,0.5950962456190977,0.7050356728609679
19.87278278278278,0.6477291783320334,0.595109828436944,0.7050011080553775
19.951331331331332,0.6477223306899988,0.5951241784938152,0.704969202791085
20.02987987987988,0.6477170334929524,0.5951391915546759,0.7049398887358727
20.10842842842843,0.64771319872443,0.5951547637314364,0.7049130971774378
20.18697697697698,0.647710738380366,0.5951707914883854,0.7048887590133461
20.265525525525526,0.6477095644671655,0.5951871716477172,0.7048668047411442
20.344074074074076,0.6477095889998988,0.5952038013951415,0.7048471644486415
20.422622622622622,0.6477107240006126,0.5952205782855645,0.7048297678043708
20.501171171171173,0.6477128814967614,0.5952374002488303,0.7048145440482376
20.57971971971972,0.6477159735197603,0.595254165595517,0.7048014219823722
20.65826826826827,0.6477199121036553,0.5952707730227705,0.7047903299621909
20.736816816816816,0.6477246092839135,0.5952871216201693,0.7047811958876813
20.815365365365366,0.6477299770963334,0.5953031108756082,0.7047739471949185
20.893913913913913,0.6477359275760751,0.5953186406811942,0.7047685108478281
