dose,RR,lb,ub
0,1,1,1
0.3041041041041041,0.9969168454268085,0.9943415584858307,0.9994988022115354
0.6082082082082082,0.9938468525703738,0.9887223281808787,0.9989979372483035
0.9123123123123122,0.990793602991284,0.9831491583803291,0.9984974867350621
1.2164164164164164,0.987760633881191,0.9776287394160724,0.9979975327117842
1.5205205205205206,0.9847514387367237,0.9721676059105481,0.9974981579290304
1.8246246246246245,0.9817694681580519,0.9667721404744297,0.9969994461511251
2.1287287287287286,0.9788181307693921,0.961448577826404,0.99650148247021
2.432832832832833,0.9759007942588416,0.9562030093139462,0.9960043536344342
2.736936936936937,0.9730207865350237,0.9510413878146635,0.9955081483937901
3.041041041041041,0.9701813969981335,0.9459695329984598,0.99501295786741
3.3451451451451453,0.9673858779231018,0.9409931369314452,0.9945188759365304
3.649249249249249,0.964637445952721,0.9361177700031714,0.9940259996677945
3.953353353353353,0.9619392836987227,0.9313488871593888,0.9935344297721305
4.257457457457457,0.9592945414489481,0.926691834423088,0.993044271105126
4.561561561561562,0.9567063389789171,0.9221518556870691,0.9925556332156251
4.865665665665666,0.9541777674662723,0.917734099761668,0.9920686309502516
5.169769769769769,0.9517118915067568,0.9134436276615042,0.9915833851227168
5.473873873873874,0.9493117512305802,0.9092854201151926,0.9911000232581576
5.777977977977978,0.9469803645182218,0.9052643852817979,0.9906186804244043
6.082082082082082,0.9447207293149362,0.9013853666573828,0.9901395001640668
6.386186186186186,0.942535826043445,0.8976531511542158,0.9896626355437118
6.6902902902902905,0.9404285544003836,0.8940723540537808,0.9891882484920185
6.994394394394394,0.9383996343585896,0.8906434935820817,0.9887164506447711
7.298498498498498,0.9364471865819177,0.8873622482604763,0.9882472856787278
7.602602602602603,0.9345692071875189,0.8842241182794714,0.9877807955777237
7.906706706706706,0.9327637226899704,0.8812247136606285,0.9873170246806303
8.21081081081081,0.9310287886246875,0.8783597486785373,0.9868560194749891
8.514914914914915,0.929362488217076,0.87562503648309,0.9863978284290581
8.819019019019018,0.927762931096055,0.8730164839238864,0.9859425018496982
9.123123123123124,0.9262282520506476,0.8705300865758709,0.9854900917569009
9.427227227227228,0.9247566098284034,0.868161923963617,0.9850406517680456
9.731331331331331,0.9233461859744857,0.8659081549806746,0.9845942369865511
10.035435435435435,0.921995183710315,0.8637650134998449,0.9841509038906795
10.339539539539539,0.9207018268507179,0.8617288041700013,0.9837107102190089
10.643643643643644,0.9194643587585952,0.8597958983950276,0.983273714849631
10.947747747747748,0.9182810413361683,0.8579627304905343,0.9828399776704995
11.251851851851852,0.9171501540519216,0.8562257940141893,0.9824095594386214
11.555955955955955,0.916069993002408,0.8545816382657359,0.9819825216259608
11.86006006006006,0.9150388700081303,0.8530268649530369,0.9815589262500578
12.164164164164164,0.9140551117427598,0.8515581250207752,0.9811388356874473
12.468268268268268,0.9131170588949976,0.8501721156387295,0.980722312468028
12.772372372372372,0.9122230653624244,0.8488655773468403,0.9803094190485794
13.076476476476476,0.9113714974767282,0.8476352913545615,0.9799002175636633
13.380580580580581,0.9105607332597347,0.8464780769922557,0.9794947695521846
13.684684684684685,0.9097891617097063,0.8453907893126417,0.9790931356579338
13.988788788788789,0.9090551821174053,0.8443703168405163,0.9786953753024868
14.292892892892892,0.9083572034114596,0.8434135794691681,0.9783015463289098
14.596996996996996,0.9076936435325906,0.8425175265020479,0.9779117046148085
14.901101101101101,0.9070629288363022,0.8416791348383877,0.9775259036533809
15.205205205205205,0.9064634935236575,0.8408954073015248,0.9771441941012775
15.509309309309309,0.9058937790997929,0.840163371108721,0.9767666232922565
15.813413413413413,0.9053522338598521,0.8394800764812429,0.9763932347158433
16.117517517517516,0.9048373124020438,0.8388425953933911,0.9760240674604687
16.42162162162162,0.9043474751675514,0.8382480204590299,0.9756591556208726
16.725725725725727,0.9038811880070455,0.8376934639539745,0.9752985276699218
17.02982982982983,0.9034369217735712,0.8371760569723247,0.9749422057954144
17.333933933933935,0.9030131519416011,0.8366929487145109,0.9745902052029125
17.638038038038037,0.9026083582520668,0.8362413059044176,0.9742425333861846
17.942142142142142,0.9022210243831911,0.8358183123324775,0.9738991893674317
18.246246246246248,0.9018496376469703,0.8354211685211032,0.9735601629101244
18.55035035035035,0.9014926887111605,0.8350470915082133,0.973225433707991
18.854454454454455,0.9011486713466401,0.8346933147439463,0.9728949705544583
19.158558558558557,0.9008160822000357,0.8343570880949394,0.9725687304976626
19.462662662662662,0.9004934205915028,0.8340356779497731,0.9722466579869957
19.766766766766768,0.9001791883375677,0.8337263674183772,0.9719286840180376
20.07087087087087,0.8998718895989477,0.8334264566173635,0.9716147252836201
20.374974974974975,0.8995700307532651,0.833133263032397,0.9713046833396725
20.679079079079077,0.8992721202925911,0.8328441219478947,0.9709984437953764
20.983183183183183,0.8989766687457451,0.8325563869335186,0.9706958755380136
21.28728728728729,0.8986822058421395,0.8322674606302445,0.9703968319099082
21.59139139139139,0.898387889885655,0.8319758642925161,0.9701012196784468
21.895495495495496,0.8980936703168387,0.8316815145194164,0.9698090273525496
22.199599599599598,0.8977995471041238,0.8313844172374635,0.9695202484774792
22.503703703703703,0.8975055202159541,0.8310845787734376,0.9692348761986868
22.80780780780781,0.8972115896207834,0.8307820058513434,0.9689529032648478
23.11191191191191,0.8969177552870761,0.8304767055891187,0.9686743220311558
23.416016016016016,0.896624017183307,0.8301686854950863,0.9683991244628675
23.72012012012012,0.8963303752779606,0.829857953464162,0.9681273021390947
24.024224224224223,0.8960368295395327,0.8295445177738221,0.9678588462568392
24.32832832832833,0.8957433799365284,0.8292283870798299,0.9675937476352615
24.63243243243243,0.8954500264374641,0.8289095704117383,0.9673319967201821
24.936536536536536,0.8951567690108658,0.8285880771681639,0.9670735835888039
25.240640640640642,0.8948636076252698,0.8282639171118465,0.9668184979546532
25.544744744744744,0.8945705422492235,0.8279371003645006,0.9665667291727302
25.84884884884885,0.8942775728512834,0.8276076374014575,0.9663182662448616
26.15295295295295,0.8939846994000173,0.8272755390461204,0.9660730978252504
26.457057057057057,0.8936919218640031,0.826940816464225,0.9658312122262115
26.761161161161162,0.8933992402118284,0.826603481157923,0.9655925974240882
27.065265265265264,0.8931066544120916,0.8262635449596947,0.9653572410653412
27.36936936936937,0.8928141644334017,0.8259210200260952,0.9651251304727999
27.67347347347347,0.8925217702443768,0.8255759188313466,0.9648962526520704
27.977577577577577,0.8922294718136469,0.8252282541607846,0.9646705942980899
28.281681681681683,0.8919372691098506,0.8248780391041629,0.964448141801819
28.585785785785784,0.8916451621016384,0.8245252870488331,0.9642288812570652
28.88988988988989,0.8913531507576697,0.8241700116727987,0.9640127984674253
29.193993993993992,0.8910612350466148,0.8238122269376584,0.9637998789533423
29.498098098098097,0.8907694149371546,0.8234519470814499,0.9635901079592643
29.802202202202203,0.8904776903979791,0.8230891866113905,0.9633834704608981
30.106306306306305,0.8901860613977898,0.8227239602965413,0.96317995117255
30.41041041041041,0.8898945279052982,0.8223562831603878,0.9629795345545422
30.714514514514516,0.8896030898892252,0.8219861704733528,0.9627822048206981
31.018618618618618,0.8893117473183025,0.8216136377452532,0.9625879459458884
31.322722722722723,0.8890205001612724,0.8212387007177024,0.9623967416736261
31.626826826826825,0.8887293483868877,0.8208613753564721,0.9622085755237071
31.93093093093093,0.8884382919639094,0.8204816778438132,0.9620234307998822
32.23503503503503,0.8881473308611116,0.820099624570765,0.9618412905975575
32.53913913913914,0.8878564650472762,0.8197152321294289,0.9616621378115107
32.84324324324324,0.8875656944911969,0.8193285173052468,0.9614859551436195
33.14734734734735,0.887275019161677,0.8189394970692683,0.96131272511059
33.451451451451454,0.8869844390275295,0.8185481885704268,0.9611424300516805
33.75555555555555,0.8866939540575788,0.8181546091278302,0.9609750521364137
34.05965965965966,0.8864035642206589,0.817758776223068,0.9608105733722652
34.363763763763764,0.8861132694856134,0.8173607074925477,0.9606489756123278
34.66786786786787,0.8858230698212973,0.8169604207198679,0.9604902405629406
34.971971971971975,0.8855329651965753,0.8165579338282275,0.9603343497912765
35.27607607607607,0.8852429555803211,0.8161532648728831,0.9601812847328836
35.58018018018018,0.884953040941421,0.8157464320336679,0.9600310266991717
35.884284284284284,0.8846632212487697,0.8153374536075555,0.9598835568848414
36.18838838838839,0.8843734964712724,0.814926348001301,0.959738856375245
36.492492492492495,0.8840838665778444,0.8145131337241485,0.9595969061536804
36.796596596596594,0.8837943315374123,0.8140978293806151,0.9594576871086059
37.1007007007007,0.8835048913189111,0.8136804536633524,0.9593211800407757
37.404804804804805,0.8832155458912873,0.8132610253461,0.95918736567029
37.70890890890891,0.8829262952234967,0.8128395632767239,0.9590562246435531
38.013013013013015,0.8826371392845067,0.8124160863703528,0.9589277375401404
38.317117117117114,0.8823480780432933,0.8119906136026078,0.9588018848795632
38.62122122122122,0.8820591114688439,0.81156316400294215,0.958678647127934
38.925325325325325,0.8817702395301535,0.8111337566480747,0.9585580047045252
39.22942942942943,0.8814814621962304,0.810702410655549,0.9584399379882191
39.533533533533536,0.8811927794360926,0.810269145177391,0.9583244273238469
39.837637637637634,0.8809041912187664,0.8098339793938798,0.95821145302841
40.14174174174174,0.8806156975132893,0.809396932507449,0.9581009953971875
40.445845845845845,0.8803272982887085,0.8089580237366955,0.9579930347097226
40.74994994994995,0.8800389935140835,0.8085172723105191,0.9578875512356881
41.054054054054056,0.8797507831584807,0.8080746974623714,0.9577845252406263
41.358158158158155,0.8794626671909779,0.8076303184246476,0.9576839369915662
41.66226226226226,0.879174645580665,0.8071841544231962,0.9575857667625143
41.966366366366366,0.8788867182966386,0.806736224671949,0.9574899948398133
42.27047047047047,0.8785988853080068,0.806286548367696,0.9573966015273783
42.57457457457458,0.8783111465838905,0.8058351446849806,0.9573055671518003
42.878678678678675,0.8780235020934162,0.8053820327711194,0.9572168720673155
43.18278278278278,0.8777359518057226,0.8049272317413669,0.9571304966606514
43.486886886886886,0.8774484956899606,0.8044707606742038,0.9570464213557378
43.79099099099099,0.8771611337152867,0.8040126386067478,0.9569646266182834
44.0950950950951,0.8768738658508717,0.8035528845303165,0.9568850929602294
44.399199199199195,0.8765866920658926,0.803091517386098,0.956807800944064
44.7033033033033,0.876299612329542,0.8026285560609754,0.956732731187013
45.007407407407406,0.8760126266110161,0.8021640193834525,0.9566598643650931
45.31151151151151,0.8757257348795254,0.8016979261197407,0.956589181217044
45.61561561561562,0.8754389371042908,0.8012302949699531,0.9565206625481265
45.91971971971972,0.8751522332545403,0.8007611445644292,0.9564542892337925
46.22382382382382,0.8748656232995119,0.8002904934601925,0.9563900422232304
46.52792792792793,0.8745791072084598,0.7998183601375399,0.9563279025427889
46.83203203203203,0.8742926849506408,0.7993447629967283,0.9562678512992635
47.13613613613614,0.8740063564953247,0.7988697203548157,0.9562098696830744
47.44024024024024,0.8737201218117916,0.7983932504426089,0.956153938971315
47.74434434434434,0.8734339808693331,0.7979153714017333,0.9561000405306809
48.04844844844845,0.8731479336372481,0.7974361012818165,0.9560481558202818
48.35255255255255,0.8728619800848452,0.7969554580377971,0.9559982663943342
48.65665665665666,0.8725761201814479,0.7964734595273529,0.9559503539047438
48.96076076076076,0.8722903538963837,0.7959901235084189,0.9559044001035656
49.26486486486486,0.8720046811989931,0.795505467636847,0.9558603868453625
49.56896896896897,0.8717191020586286,0.7950195094641597,0.9558182960894478
49.87307307307307,0.8714336164446479,0.7945322664354041,0.9557781099020187
50.17717717717718,0.8711482243264217,0.7940437558871329,0.9557398104581898
50.481281281281284,0.8708629256733332,0.7935539950454761,0.9557033800439197
50.78538538538538,0.8705777204547696,0.7930630010243052,0.9556688010578307
51.08948948948949,0.8702926086401327,0.7925707908235218,0.9556360560129399
51.39359359359359,0.8700075901988312,0.7920773813274207,0.9556051275382809
51.6976976976977,0.8697226651002896,0.7915827893031698,0.9555759983804407
52.001801801801804,0.8694378333139351,0.7910870313993531,0.9555486514049915
52.3059059059059,0.8691530948092075,0.7905901241446384,0.9555230695978413
52.61001001001001,0.8688684495555614,0.7900920839465212,0.9554992360664939
52.91411411411411,0.8685838975224538,0.789592927090138,0.9554771340412118
53.21821821821822,0.8682994386793553,0.7890926697371945,0.9554567468761087
53.522322322322324,0.8680150729957483,0.7885913279249601,0.9554380580501518
53.82642642642642,0.867730800441123,0.7880889175653404,0.9554210511680803
54.13053053053053,0.8674466209849773,0.7875854544440309,0.9554057099612522
54.434634634634634,0.8671625345968261,0.7870809542197644,0.9553920182884141
54.73873873873874,0.8668785412461866,0.7865754324235941,0.9553799601363894
55.042842842842845,0.8665946409025896,0.7860689044582891,0.9553695196207034
55.34694694694694,0.8663108335355754,0.7855613855977763,0.955360680986135
55.65105105105105,0.8660271191146973,0.7850528909866616,0.9553534286072006
55.955155155155154,0.8657434976095122,0.7845434356397983,0.9553477469885674
56.25925925925926,0.8654599689895918,0.7840330344419496,0.955343620765412
56.563363363363365,0.8651765332245174,0.7835217021474876,0.9553410347037118
56.86746746746746,0.8648931902838788,0.7830094533801606,0.9553399737004747
57.17157157157157,0.8646099401372729,0.7824963026329156,0.9553404227839135
57.475675675675674,0.8643267827543152,0.7819822642677962,0.9553423671135695
57.77977977977978,0.8640437181046229,0.7814673525158544,0.955345791980369
58.083883883883885,0.8637607461578268,0.7809515814771559,0.9553506828066394
58.387987987987984,0.8634778668835659,0.7804349651208097,0.9553570251460692
58.69209209209209,0.8631950802514928,0.7799175172850621,0.9553648046836251
58.996196196196195,0.8629123862312644,0.7793992516774187,0.9553740072354093
59.3003003003003,0.8626297847925516,0.7788801818748358,0.9553846187484891
59.604404404404406,0.8623472759050358,0.7783603213239372,0.9553966253006716
59.90850850850851,0.8620648595384055,0.7778396833412742,0.9554100131002368
60.21261261261261,0.8617825356623581,0.7773182811136318,0.9554247684856351
60.516716716716715,0.8615003042466086,0.7767961276983811,0.9554408779251513
60.82082082082082,0.8612181652608715,0.7762732360238378,0.95545832801651
61.124924924924926,0.8609361186748765,0.7757496188896937,0.9554771054864756
61.42902902902903,0.8606541644583695,0.775225288967469,0.9554971971903994
61.73313313313313,0.8603723025810903,0.7747002588009632,0.9555185901117282
62.037237237237235,0.8600905330128035,0.7741745408068073,0.9555412713615081
62.34134134134134,0.8598088557232795,0.7736481472749794,0.9555652281778352
62.645445445445446,0.8595272706822897,0.7731210903693709,0.9555904479252775
62.94954954954955,0.859245777859631,0.7725933821284117,0.9556169180942969
63.25365365365365,0.8589643772251027,0.7720650344656634,0.9556446263006125
63.557757757757756,0.8586830687485033,0.7715360591704628,0.9556735602845493
63.86186186186186,0.8584018523996629,0.7710064679086309,0.9557037079103912
64.16596596596597,0.8581207281484042,0.7704762722231171,0.9557350571656625
64.47007007007007,0.8578396959645693,0.7699454835347425,0.955767596160435
64.77417417417418,0.8575587558179985,0.7694141131429074,0.9558013131265796
65.07827827827828,0.8572779076785559,0.7688821722263736,0.9558361964170325
65.38238238238239,0.8569971515161112,0.7683496718440075,0.9558722345050177
65.68648648648649,0.8567164873005356,0.7678166229355613,0.9559094159832567
65.99059059059059,0.8564359150017204,0.7672830363224958,0.9559477295631816
66.2946946946947,0.8561554345895679,0.7667489227087824,0.9559871640741153
66.5987987987988,0.8558750460339761,0.7662142926817128,0.9560277084624316
66.90290290290291,0.8555947493048686,0.7656791567127761,0.9560693517907357
67.20700700700701,0.8553145443721719,0.7651435251584829,0.956112083236996
67.5111111111111,0.8550344312058209,0.7646074082612364,0.9561558920936833
67.81521521521522,0.8547544097757611,0.7640708161502059,0.9562007677669014
68.11931931931932,0.8544744800519564,0.7635337588422212,0.9562466997755061
68.42342342342343,0.8541946420043602,0.7629962462426281,0.9562936777501962
68.72752752752753,0.8539148956029626,0.7624582881462432,0.9563416914326468
69.03163163163163,0.8536352408177458,0.7619198942382075,0.9563907306745707
69.33573573573574,0.8533556776186969,0.7613810740949127,0.9564407854368165
69.63983983983984,0.8530762059758326,0.7608418371849509,0.9564918457884658
69.94394394394395,0.8527968258591682,0.7603021928699981,0.9565439019058899
70.24804804804805,0.8525175372387178,0.7597621504057434,0.9565969440718202
70.55215215215215,0.8522383400845281,0.7592217189428613,0.9566509626744406
70.85625625625626,0.8519592343666441,0.7586809075279037,0.9567059482064306
71.16036036036036,0.8516802200551075,0.758139725104238,0.9567618912640216
71.46446446446447,0.8514012971200015,0.7575981805130373,0.956818782546095
71.76856856856857,0.851122465531383,0.7570562824941425,0.9568766128531867
72.07267267267267,0.8508437252593514,0.756514039687087,0.9569353730865962
72.37677677677678,0.8505650762739949,0.7559714606319755,0.9569950542474042
72.68088088088088,0.8502865185454118,0.7554285537704536,0.9570556474355425
72.98498498498499,0.8500080520437204,0.754885327446661,0.9571171438488607
73.28908908908909,0.8497296767390501,0.7543417899081664,0.9571795347821732
73.59319319319319,0.8494513926015206,0.7537979493068845,0.9572428116263018
73.8972972972973,0.8491731996012861,0.7532538137000659,0.9573069658671715
74.2014014014014,0.8488950977085007,0.752709391051199,0.9573719890848399
74.50550550550551,0.8486170868933117,0.7521646892309372,0.9574378729525583
74.80960960960961,0.8483391671259076,0.7516197160180886,0.9575046092358741
75.11371371371371,0.8480613383764694,0.7510744791004937,0.9575721897916577
75.41781781781782,0.8477836006151738,0.7505289860759561,0.9576406065671791
75.72192192192192,0.8475059538122386,0.7499832444532208,0.9577098515992157
76.02602602602603,0.8472283979378742,0.7494372616528403,0.9577799170130928
76.33013013013013,0.8469509329622888,0.7488910450081,0.9578507950217683
76.63423423423423,0.8466735588557243,0.748344601765972,0.9579224779249471
76.93833833833834,0.846396275588425,0.7477979390879906,0.9579949581081455
77.24244244244244,0.8461190831306239,0.7472510640511413,0.9580682280417748
77.54654654654655,0.8458419814525975,0.7467039836488237,0.9581422802802845
77.85065065065065,0.8455649705246151,0.7461567047916913,0.9582171074612243
78.15475475475475,0.8452880503169422,0.7456092343085451,0.958292702304356
78.45885885885886,0.8450112207998811,0.745061578947264,0.9583690576108018
78.76296296296296,0.844734481943732,0.7445137453756432,0.9584461662621305
79.06706706706707,0.8444578337187886,0.7439657401822629,0.9585240212194795
79.37117117117117,0.8441812760953948,0.7434175698774195,0.958602615522734
79.67527527527527,0.8439048090438489,0.7428692408938841,0.9586819422895806
79.97937937937938,0.8436284325345109,0.742320759587876,0.958761994714744
80.28348348348348,0.8433521465377254,0.7417721322398296,0.9588427660690684
80.58758758758759,0.8430759510238345,0.7412233650552549,0.9589242496986824
80.89169169169169,0.8427998459632258,0.7406744641656244,0.9590064390242056
