dose,RR,lb,ub
0,1,1,1
0.1807107107107107,0.9932598399357507,0.9914382494288541,0.9950847772894902
0.3614214214214214,0.986570924684815,0.9829574096766956,0.9901977235754152
0.5421321321321322,0.9799386065256199,0.97456420002624,0.9853426511393691
0.7228428428428428,0.9733680863692248,0.9662650910332116,0.9805232956817249
0.9035535535535535,0.9668644171675127,0.9580663111771296,0.975743317846233
1.0842642642642644,0.9604325075866925,0.9499738539203378,0.9710063048815392
1.264974974974975,0.9540771259319126,0.9419934851438935,0.9663157724359974
1.4456856856856857,0.9478029043093965,0.9341307509304243,0.9616751664823805
1.6263963963963963,0.9416143430131465,0.926390985665594,0.957087865369337
1.807107107107107,0.9355158151239312,0.918779320431383,0.952557181996735
1.9878178178178179,0.929511571308967,0.9113006916659782,0.9480863661123462
2.1685285285285287,0.9236057448114263,0.9039598500666671,0.943678606727674
2.3492392392392394,0.9178023566196507,0.8967613697137441,0.9393370346511193
2.52994994994995,0.912105320806711,0.8897096573950355,0.935064725137101
2.7106606606606607,0.9065184500317424,0.8828089621122555,0.9308647006502161
2.8913713713713713,0.9010454611952848,0.8760633847519731,0.9267399337440406
3.072082082082082,0.8956899812416784,0.8694768879055285,0.922693350054736
3.2527927927927927,0.8904555531023983,0.8630533058237448,0.9187278314102522
3.4335035035035033,0.8853456417750609,0.8567963544937556,0.9148462190566046
3.614214214214214,0.8803636405336969,0.850709641826677,0.91105131700347
3.794924924924925,0.8755128772667634,0.8447966779462023,0.9073458954921931
3.9756356356356357,0.870796612536905,0.839060874951863,0.903732688583831
4.156346346346346,0.866216217684225,0.833503250675323,0.9002130887566784
4.3370570570570575,0.8617689463763586,0.8281196406964555,0.8967855373096186
4.517767767767768,0.8574515722359104,0.8229053124836648,0.8934481131380827
4.698478478478479,0.853260955519637,0.8178556805473773,0.890198937943439
4.879189189189189,0.8491940398577567,0.8129663004365097,0.8870361747377931
5.0598998998999,0.8452478491118481,0.8082328629601725,0.8839580264177052
5.24061061061061,0.841419484346427,0.8036511886296899,0.8809627343984885
5.421321321321321,0.8377061209095172,0.7992172223147086,0.8780485773027316
5.602032032032032,0.8341050056177534,0.7949270281064126,0.8752138696980607
5.782742742742743,0.8306134540417506,0.790776784380476,0.8724569608801493
5.963453453453454,0.8272288478876829,0.7867627790522408,0.8697762336976866
6.144164164164164,0.8239486324711912,0.7828814050166122,0.8671701034165455
6.324874874874875,0.8207703142799264,0.7791291557652907,0.8646370166207815
6.505585585585585,0.8176914586212003,0.7755026211741332,0.8621754501483919
6.686296296296296,0.8147096873513813,0.7719984834536726,0.8597839100599955
6.867007007007007,0.8118226766838273,0.7686135132560783,0.8574609306387733
7.047717717717718,0.8090281550722954,0.7653445659321042,0.8552050734201554
7.228428428428428,0.8063239011669097,0.7621885779318571,0.8530149262498542
7.409139139139139,0.8037077418399055,0.7591425633434907,0.8508891023689416
7.58984984984985,0.8011775502784942,0.7562036105642075,0.8488262395247427
7.77056056056056,0.7987312441423202,0.7533688790982258,0.8468249991063922
7.951271271271271,0.7963667837830937,0.7506355964766305,0.8448840653039471
8.131981981981982,0.7940821705241033,0.7480010552942864,0.8430021442900065
8.312692692692693,0.7918754449974134,0.7454626103592409,0.841177963422828
8.493403403403404,0.7897446855366572,0.7430176759502841,0.8394102704699662
8.674114114114115,0.7876880066234357,0.7406637231785639,0.8376978328514939
8.854824824824824,0.7857035573854251,0.7383982774493802,0.8360394369018989
9.035535535535535,0.7837895201443862,0.736218916020492,0.8344338871497673
9.216246246246246,0.7819441090123581,0.7341232656534772,0.8328800056144011
9.396956956956958,0.7801655685343952,0.7321090003548826,0.831376631118529
9.577667667667667,0.7784521723762937,0.7301738392040874,0.8299226186162967
9.758378378378378,0.7768022220558217,0.7283155442649825,0.8285168385357428
9.939089089089089,0.7752140457160467,0.7265319185787413,0.827158176134982
10.1197997997998,0.7736859969394183,0.7248208042351187,0.8258455308713376
10.300510510510511,0.7722164536013345,0.7231800805198716,0.824577815782685
10.48122122122122,0.7708038167619813,0.7216076621360406,0.823353956880281
10.661931931931932,0.7694465095952985,0.7201014974969754,0.8221728925523788
10.842642642642643,0.7681429763539829,0.7186595670891165,0.821033572977938
11.023353353353354,0.7668916813694944,0.7172798819026716,0.8199349595497689
11.204064064064063,0.7656911080860888,0.7159604819284456,0.8188760243064598
11.384774774774774,0.764539758127948,0.7146994347191903,0.8178557493724663
11.565485485485485,0.763436150398532,0.7134948340139452,0.8168731264057596
11.746196196196196,0.7623788202113209,0.7123447984239396,0.8159271560524567
11.926906906906908,0.7613663184511663,0.711247470178707,0.8150168474078838
12.107617617617617,0.7603972107655071,0.7102010139311559,0.8141412174835503
12.288328328328328,0.7594700767847565,0.70920361562040235,0.8132992906795478
12.469039039039039,0.7585835093711965,0.7082534813912478,0.8124900982619175
12.64974974974975,0.7577361138957652,0.7073488365692342,0.8117126778445726
12.83046046046046,0.7569265075421512,0.7064879246902684,0.8109660728754
13.01117117117117,0.7561533186376478,0.7056690065838422,0.8102493321262154
13.191881881881882,0.7554151860102537,0.7048903595089179,0.8095615091862901
13.372592592592593,0.7547107583715394,0.7041502763415701,0.808901661959226
13.553303303303304,0.7540386937248283,0.703447064813498,0.8082688521630114
13.734014014014013,0.753397658798269,0.7027790468005285,0.807662144833152
13.914724724724724,0.7527863285024113,0.7021445576602414,0.807080607828841
14.095435435435435,0.7522033854119144,0.7015419456178332,0.806523311342201
14.276146146146147,0.7516475192710504,0.7009695711993301,0.8059893274107133
14.456856856856856,0.7511174265226848,0.7004258067112389,0.8054777294330209
14.637567567567567,0.7506118098604426,0.6999090357656926,0.8049875916883915
14.818278278278278,0.7501293778037889,0.6994176528501161,0.8045179888602034
14.99898898898899,0.7496688442957722,0.6989500629403922,0.8040679955639226
15.1796996996997,0.7492289283232005,0.6985046811564579,0.8036366858801283
15.36041041041041,0.7488083535590414,0.6980799324592136,0.8032231328932564
15.54112112112112,0.7484058480268443,0.6976742513875517,0.8028264082368194
15.721831831831832,0.7480201437870141,0.6972860818342645,0.8024455816459833
15.902542542542543,0.7476499766447698,0.6969138768595099,0.8020797205184783
16.083253253253254,0.7472940858796372,0.6965560985404406,0.8017278894849273
16.263963963963963,0.7469512139963465,0.6962112178555442,0.8013891499897967
16.444674674674676,0.7466201064970028,0.6958777146021408,0.801062559884255
16.625385385385385,0.7462995116744271,0.6955540773454401,0.8007471730323538
16.806096096096095,0.7459881804265572,0.6952388033974637,0.800442038932023
16.986806806806808,0.7456848660918196,0.6949303988240763,0.8001462023524741
17.167517517517517,0.7453883243053879,0.694627378478313,0.7998587029896932
17.34822822822823,0.7450973128762499,0.6943282660581154,0.7995785751417767
17.52893893893894,0.744810591685012,0.6940315941865466,0.7993048474059382
17.70964964964965,0.7445269226023713,0.6937359045125022,0.7990365423990646
17.89036036036036,0.7442450694282009,0.6934397478299125,0.7987726765037544
18.07107107107107,0.7439638455411285,0.6931417399065185,0.7985122978555442
18.25178178178178,0.7436827396683853,0.6928412912178685,0.7982549889723023
18.432492492492493,0.7434017400111692,0.6925383973978514,0.7980007305416573
18.613203203203202,0.7431208465293467,0.6922330682291907,0.7977495122548179
18.793913913913915,0.7428400591827989,0.6919253138888889,0.7975013234091844
18.974624624624624,0.7425593779314227,0.6916151449418424,0.7972561529147367
19.155335335335334,0.7422788027351309,0.6913025723341973,0.7970139893006785
19.336046046046047,0.7419983335538503,0.6909876073864533,0.7967748207223267
19.516756756756756,0.7417179703475235,0.6906702617863402,0.796538634968242
19.69746746746747,0.7414377130761073,0.6903505475814624,0.7963054194675772
19.878178178178178,0.7411575616995746,0.6900284771717371,0.7960751612976448
20.058888888888887,0.740877516177914,0.6897040633016283,0.7958478471916803
20.2395995995996,0.7405975764711272,0.6893773190521909,0.7956234635467937
20.42031031031031,0.7403177425392328,0.6890482578329457,0.7954019964321006
20.601021021021023,0.7400380143422638,0.688716893373584,0.795183431597013
20.781731731731732,0.7397583918402681,0.6883832397155247,0.7949677544796824
20.96244244244244,0.739478874993309,0.6880473112033336,0.7947549502155812
21.143153153153154,0.7391994637614652,0.6877091224760162,0.7945450036462093
21.323863863863863,0.7389201581048302,0.6873686884581972,0.7943378993279135
21.504574574574573,0.7386409579835121,0.6870260243511997,0.7941336215408064
21.685285285285286,0.7383618633576351,0.6866811456240404,0.7939321542977757
21.865995995995995,0.738082874187337,0.6863340680043417,0.7937334813535646
22.046706706706708,0.7378039904327724,0.6859848074691912,0.79353758621392
22.227417417417417,0.7375252120541094,0.685633380235939,0.7933444521447863
22.408128128128126,0.7372465390115324,0.6852798027529671,0.7931540621815437
22.58883883883884,0.7369679712652397,0.6849240916904223,0.7929663991382682
22.76954954954955,0.7366895087754459,0.6845662639309411,0.792781445617011
22.95026026026026,0.7364111515023799,0.6842063365603648,0.7925991840170804
23.13097097097097,0.7361328994062852,0.6838443268584645,0.7924195965443164
23.31168168168168,0.7358547524474207,0.6834802522896825,0.7922426652203494
23.492392392392393,0.7355767105860608,0.6831141304939031,0.7920683718918307
23.673103103103102,0.7352987737824946,0.6827459792772601,0.7918966982396228
23.853813813813815,0.7350209419970261,0.6823758166029914,0.7917276257879435
24.034524524524524,0.7347432151899738,0.6820036605823528,0.7915611359134527
24.215235235235234,0.7344655933216725,0.6816295294655997,0.7913972098542728
24.395945945945947,0.7341880763524707,0.6812534416330385,0.7912358287189314
24.576656656656656,0.7339106642427328,0.6808754155861679,0.7910769734952249
24.75736736736737,0.7336333569528373,0.6804954699389079,0.7909206250589857
24.938078078078078,0.7333561544431785,0.680113623408929,0.7907667641827542
25.118788788788788,0.733079056674165,0.6797298948090881,0.7906153715443418
25.2994994994995,0.732802063606221,0.6793443030389781,0.7904664277352822
25.48021021021021,0.7325251751997852,0.6789568670765945,0.7903199132691618
25.66092092092092,0.7322483914153117,0.678567605970132,0.7901758085898261
25.841631631631632,0.7319717122132682,0.678176538829907,0.7900340940794515
26.02234234234234,0.7316951375541397,0.6777836848204238,0.7898947500664871
26.203053053053054,0.7314186673984232,0.6773890631525732,0.7897577568334452
26.383763763763763,0.731142301706634,0.6769926930759875,0.7896230946245576
26.564474474474473,0.730866040439299,0.6765945938715339,0.7894907436532695
26.745185185185186,0.7305898835569622,0.6761947848439723,0.7893606841095909
26.925895895895895,0.7303138310201821,0.6757932853147649,0.7892328961672833
27.106606606606608,0.7300378827895315,0.6753901146150447,0.789107359990889
27.287317317317317,0.729762038825599,0.6749852920787509,0.7889840557425981
27.468028028028026,0.7294862990889864,0.6745788370359251,0.7888629635889484
27.64873873873874,0.7292106635403132,0.674170768806181,0.7887440637073623
27.82944944944945,0.7289351321402089,0.6737611066923309,0.7886273362925059
28.01016016016016,0.7286597048493254,0.6733498699742032,0.7885127615624952
28.19087087087087,0.7283843816283231,0.6729370779026029,0.7884003197649075
28.37158158158158,0.7281091624378786,0.6725227496934679,0.7882899911826405
28.552292292292293,0.7278340472386836,0.6721069045221874,0.7881817561395915
28.733003003003002,0.727559035991448,0.6716895615180971,0.7880755950061659
28.91371371371371,0.727284128656891,0.6712707397591363,0.7879714882046056
29.094424424424425,0.7270093251957503,0.6708504582666933,0.7878694162141584
29.275135135135134,0.7267346255687782,0.6704287360006108,0.7877693595760655
29.455845845845847,0.7264600297367404,0.6700055918543648,0.7876712988983804
29.636556556556556,0.7261855376604157,0.6695810446504141,0.787575214860618
29.817267267267265,0.7259111493006052,0.6691551131357282,0.787481088218244
29.99797797797798,0.7256368646181162,0.6687278159774563,0.7873888998069745
30.178688688688688,0.7253626835737749,0.6682991717587933,0.787298630546934
30.3593993993994,0.7250886061284204,0.6678691989749886,0.7872102614466351
30.54011011011011,0.7248146322429109,0.6674379160295315,0.7871237736068042
30.72082082082082,0.7245407618781156,0.6670053412304813,0.7870391482240356
30.901531531531532,0.7242669949949169,0.6665714927869657,0.7869563665942966
31.08224224224224,0.7239933315542179,0.6661363888058425,0.786875410116281
31.262952952952954,0.7237197715169292,0.66570004728849,0.7867962602945908
31.443663663663663,0.7234463148439841,0.6652624861277813,0.7867188987427937
31.624374374374373,0.723172961496324,0.6648237231051737,0.7866433071863016
31.805085085085086,0.7228997114349104,0.6643837758879724,0.7865694674651329
31.985795795795795,0.7226265646207092,0.6639426620267086,0.7864973615365022
32.16650650650651,0.7223535210147178,0.6635003989527007,0.7864269714773116
32.347217217217214,0.7220805805779322,0.6630570039756924,0.7863582794864469
32.52792792792793,0.7218077432713771,0.6626124942816891,0.786291267887002
32.70863863863864,0.7215350090560753,0.6621668869308636,0.7862259191283111
32.88934934934935,0.7212623778930838,0.6617201988556582,0.7861622157879173
33.07006006006006,0.7209898497434571,0.6612724468589382,0.7861001405733479
33.25077077077077,0.720717424568272,0.6608236476123288,0.7860396763238228
33.431481481481484,0.7204451023286278,0.6603738176546491,0.7859808060118249
33.61219219219219,0.7201728829856219,0.6599229733904334,0.7859235127445268
33.7929029029029,0.719900766500375,0.659471131088619,0.7858677797651535
33.973613613613615,0.7196287528340319,0.6590183068813166,0.7858135904542135
34.15432432432432,0.7193568419477288,0.6585645167626557,0.7857609283305883
34.335035035035034,0.7190850338026428,0.6581097765878147,0.7857097770525994
34.51574574574575,0.7188133283599424,0.6576541020720533,0.7856601204188777
34.69645645645646,0.718541725580831,0.6571975087899353,0.7856119423692269
34.877167167167165,0.7182702254265159,0.6567400121745709,0.7855652269853189
35.05787787787788,0.717998827858212,0.6562816275169855,0.7855199584913323
35.23858858858859,0.7177275328371691,0.6558223699656007,0.7854761212545239
35.4192992992993,0.7174563403246312,0.655362254525734,0.7854336997856515
35.60001001001001,0.7171852502818654,0.6549012960592474,0.7853926787393767
35.78072072072072,0.7169142626701624,0.6544395092842514,0.7853530429145666
35.96143143143143,0.7166433774508075,0.6539769087748537,0.7853147772544845
36.14214214214214,0.716372594585119,0.6535135089610514,0.7852778668469741
36.322852852852854,0.716101914034422,0.6530493241286279,0.7852422969245103
36.50356356356356,0.7158313357600558,0.6525843684191542,0.785208052864212
36.68427427427427,0.7155608597233755,0.65211865583005,0.7851751201877848
36.864984984984986,0.7152904858857506,0.6516522002147039,0.7851434845613959
37.0456956956957,0.7150202142085653,0.6511850152826586,0.7851131317954908
37.226406406406404,0.714750044653219,0.6507171145998525,0.7850840478445505
37.40711711711712,0.7144799771811241,0.6502485115889165,0.7850562188067924
37.58782782782783,0.7142100117537091,0.6497792195295292,0.7850296309238189
37.768538538538536,0.7139401483324168,0.6493092515588168,0.7850042705802136
37.94924924924925,0.7136703868786994,0.6488386206718028,0.7849801243030827
38.12995995995996,0.713400727354042,0.6483673397219283,0.7849571787615808
38.31067067067067,0.7131311697199177,0.6478954214215528,0.7849354207663191
38.49138138138138,0.7128617139378314,0.6474228783425825,0.784914837268825
38.67209209209209,0.7125923599692986,0.646949722917078,0.7848954153608927
38.8528028028028,0.7123231077758493,0.6464759674379211,0.7848771422739215
39.03351351351351,0.7120539573190275,0.6460016240595181,0.7848600053782127
39.214224224224225,0.7117849085603917,0.6455267047985356,0.784843992182234
39.39493493493494,0.7115159614615156,0.6450512215346709,0.7848290903318509
39.57564564564564,0.7112471159839892,0.6445751860114532,0.7848152876095257
39.756356356356356,0.7109783720894154,0.64409860983707,0.7848025719334856
39.93706706706707,0.7107097297394048,0.643621504485219,0.784790931356859
40.117777777777775,0.7104411888955957,0.6431438812960105,0.7847803540668131
40.29848848848849,0.7101727495196337,0.6426657514768556,0.7847708283836243
40.4791991991992,0.7099044115731742,0.6421871261033982,0.7847623427597513
40.659909909909906,0.7096361750178953,0.6417080161204808,0.7847548857788947
40.84062062062062,0.7093680398154886,0.6412284323431046,0.7847484461550166
41.02133133133133,0.7091000059276549,0.6407483854574187,0.7847430127313455
41.202042042042045,0.7088320733161134,0.6402678860217341,0.7847385744793771
41.38275275275275,0.7085642419425953,0.639786944467542,0.7847351204978449
41.563463463463464,0.708296511768854,0.6393055711005623,0.7847326400116914
41.74417417417418,0.7080288827566448,0.6388237761017738,0.7847311223709956
41.92488488488488,0.7077613548677444,0.6383415695284997,0.7847305570499284
42.105595595595595,0.7074939280639451,0.6378589613154747,0.7847309336456714
42.28630630630631,0.7072266023070575,0.6373759612759347,0.7847322418773336
42.467017017017014,0.7069593775588928,0.6368925791026938,0.7847344715848382
42.64772772772773,0.7066922537812879,0.6364088243692708,0.7847376127278453
42.82843843843844,0.7064252309360926,0.6359247065309876,0.7847416553846291
43.009149149149145,0.7061583089851651,0.6354402349260807,0.7847465897509557
43.18985985985986,0.7058914878903901,0.6349554187768397,0.7847524061389802
43.37057057057057,0.705624767613653,0.6344702671907095,0.7847590949760941
43.551281281281284,0.7053581481168607,0.6339847891614402,0.7847666468038151
43.73199199199199,0.7050916293619373,0.6334989935702153,0.7847750522766509
43.9127027027027,0.7048252113108128,0.6330128891867769,0.7847843021609506
44.093413413413415,0.7045588939254396,0.6325264846705773,0.7847943873337855
44.27412412412412,0.7042926771677794,0.6320397885719052,0.7848052987817972
44.454834834834834,0.7040265609998122,0.6315528093330313,0.7848170276000683
44.63554554554555,0.7037605453835303,0.6310655552893408,0.7848295649909789
44.81625625625625,0.7034946302809371,0.6305780346704686,0.7848429022630685
44.996966966966966,0.7032288156540578,0.6300902556014434,0.7848570308299115
45.17767767767768,0.7029631014649235,0.6296022261038073,0.7848719422089668
45.35838838838839,0.7026974876755885,0.6291139540967614,0.7848876280204666
45.5390990990991,0.7024319742481144,0.628625447398279,0.7849040799862703
45.71980980980981,0.7021665611445799,0.6281367137262369,0.7849212899287518
45.90052052052052,0.7019012483270752,0.627647760699533,0.784939249769673
46.08123123123123,0.7016360357577097,0.6271585958392051,0.784957951529076
46.26194194194194,0.7013709233986027,0.6266692265695366,0.7849773873241627
46.442652652652654,0.7011059112118979,0.6261796602191739,0.7849975493682032
46.62336336336336,0.7008409991597355,0.625689904022201,0.7850184299694056
46.80407407407407,0.7005761872042875,0.6251999651192662,0.7850400215298605
46.984784784784786,0.7003114753077242,0.6247098505586407,0.7850623165444142
47.16549549549549,0.700046863432243,0.6242195672973255,0.7850853075996185
47.346206206206205,0.6997823515400508,0.6237291222021117,0.785108987372636
47.52691691691692,0.6995179395933688,0.6232385220506532,0.7851333486301774
47.70762762762763,0.6992536275544353,0.6227477735325293,0.7851583842274409
47.888338338338336,0.6989894153854957,0.6222568832502908,0.7851840871070489
48.06904904904905,0.6987253030488145,0.6217658577205161,0.7852104502980146
