dose,RR,lb,ub
0,1,1,1
0.33353353353353354,0.9952986315408907,0.9917264807060617,0.998883649090318
0.6670670670670671,0.9906267802846911,0.9835362063983079,0.9977684720025392
1.0006006006006007,0.9859916175564718,0.9754429133662049,0.9966543982944986
1.3341341341341342,0.9814001785267226,0.9674598618204477,0.9955413639589676
1.6676676676676676,0.9768593651734485,0.959599848229023,0.9944293145608393
2.0012012012012015,0.972375949735935,0.9518752193822134,0.9933182084922016
2.334734734734735,0.9679565786437205,0.9442978880233337,0.9922080203958956
2.6682682682682684,0.9636077769050707,0.9368793498851269,0.9910987448125345
3.001801801801802,0.9593359529400948,0.9296307019739953,0.989990400111833
3.335335335335335,0.9551474038445708,0.9225626619453108,0.9888830327766992
3.668868868868869,0.9510483210715605,0.9156855884125866,0.9877767221181716
4.002402402402403,0.9470447965189859,0.9090095020308705,0.9866715855113564
4.335935935935936,0.943142829012502,0.9025441071897845,0.9855677842575069
4.66946946946947,0.9393483311742417,0.8962988141435253,0.9844655301959789
5.003003003003003,0.9356671366693154,0.8902827613929969,0.98336509321278
5.336536536536537,0.9321050078233285,0.8845048381180042,0.9822668098209043
5.670070070070071,0.92866764360562,0.8789737064337368,0.9811710930229407
6.003603603603604,0.9253606338227839,0.8736977212624479,0.9800784433678119
6.3371371371371374,0.9221860424346799,0.8686785262143465,0.978989431875854
6.67067067067067,0.9191404223284848,0.8639074550780558,0.9779046482263013
7.004204204204204,0.9162199190619907,0.8593752142573977,0.9768247049239756
7.337737737737738,0.9134207635746664,0.8550728037600456,0.9757502374773952
7.671271271271271,0.9107392679140645,0.850991499365967,0.9746819030961257
8.004804804804806,0.9081718211328341,0.8471228353752108,0.9736203797816588
8.338338338338339,0.9057148853494125,0.8434585880232713,0.9725663656659174
8.671871871871872,0.9033649919658715,0.8399907596128919,0.9715205784949141
9.005405405405405,0.901118738036779,0.836711563387714,0.9704837551823422
9.33893893893894,0.8989727827832908,0.8336134091594712,0.969456651375114
9.672472472472473,0.8969238442470416,0.8306888896928352,0.9684400409837697
10.006006006006006,0.8949686960787203,0.827930767848306,0.9674347156374782
10.33953953953954,0.8931041644565346,0.8253319644823224,0.9664414840274724
10.673073073073073,0.8913271251300575,0.822885547104142,0.9654611711050847
11.006606606606606,0.8896345005852343,0.8205847192904379,0.9644946171017029
11.340140140140141,0.8880232573265908,0.8184228108605449,0.9635426763383546
11.673673673673674,0.8864904032729399,0.8163932688175888,0.9626062157925629
12.007207207207207,0.8850329852631237,0.8144896490631114,0.9616861133898378
12.340740740740742,0.8836480866685542,0.8127056088950753,0.9607832559868632
12.674274274274275,0.882332825109539,0.81103490030113,0.9598985370132976
13.007807807807808,0.8810843502725779,0.8094713640605886,0.959032853739276
13.34134134134134,0.8798998418260181,0.8080089246695558,0.9581871041363548
13.674874874874876,0.8787765074316376,0.8066415861038986,0.957362183300922
14.008408408408409,0.8777115808499057,0.8053634284341326,0.9565589794111773
14.341941941941942,0.8767023201368347,0.8041686053046312,0.9557783691918054
14.675475475475476,0.8757460059304961,0.8030513422867404,0.9550212128645861
15.00900900900901,0.874839939825425,0.8020059361112392,0.9542883485685311
15.342542542542542,0.8739814428332755,0.8010267547800383,0.9535805862398258
15.676076076076077,0.8731678539282277,0.8001082385499533,0.9528987009499796
16.009609609609612,0.8723965286757669,0.7992449017728047,0.9522434257101754
16.343143143143145,0.8716648379435795,0.7984313355659778,0.9516154437608759
16.676676676676678,0.8709701666934178,0.7976622112760069,0.9510153803781901
17.01021021021021,0.8703099128528887,0.7969322846848741,0.9504437942422075
17.343743743743744,0.8696814862662221,0.7962364008947704,0.9499011684272178
17.677277277277277,0.8690823077231609,0.7955694998123741,0.94938790108915
18.01081081081081,0.8685098080651981,0.7949266221386642,0.9489042959412526
18.344344344344346,0.8679614273684674,0.7943029157554218,0.9484505526245324
18.67787787787788,0.8674346142026559,0.7936936423854177,0.9480267570941739
19.011411411411412,0.8669268249653812,0.793094184390489,0.9476328721564758
19.344944944944945,0.8664355232915218,0.7925000515609065,0.947268728302106
19.67847847847848,0.8659581795370519,0.791906887741278,0.9469340149900525
20.01201201201201,0.8654922703369676,0.7913104771333025,0.9466282725419428
20.345545545545548,0.8650352782369368,0.7907067501145231,0.9463508848078959
20.67907907907908,0.8645846913983334,0.7900917884151711,0.9461010727623933
21.012612612612614,0.8641380033763478,0.7894618295025102,0.9458778891815777
21.346146146146147,0.8636927757352222,0.7888133628131244,0.945680240756694
21.67967967967968,0.8632478199863013,0.7881448585010118,0.9455074034593159
22.013213213213213,0.8628030934689126,0.7874565301702209,0.9453590764414707
22.346746746746746,0.862358596064961,0.7867486694829839,0.9452349613706145
22.680280280280282,0.8619143276564128,0.786021581619302,0.9451347464136387
23.013813813813815,0.8614702881252939,0.7852755841931313,0.9450581073206481
23.34734734734735,0.861026477353692,0.7845110061553325,0.9450047085219833
23.68088088088088,0.8605828952237549,0.7837281866915017,0.9449742042303542
24.014414414414414,0.8601395416176918,0.7829274741223996,0.9449662395403812
24.347947947947947,0.8596964164177717,0.7821092248141979,0.9449804515183134
24.681481481481484,0.8592535195063249,0.7812738021052184,0.945016470275261
25.015015015015017,0.8588108507657425,0.7804215752552351,0.9450739200178601
25.34854854854855,0.8583684100784753,0.7795529184227851,0.9451524200709274
25.682082082082083,0.8579261973270352,0.7786682096752898,0.9452515858673103
26.015615615615616,0.8574842123939949,0.7777678300361248,0.9453710299007846
26.34914914914915,0.8570424551619874,0.7768521625721307,0.9455103626385114
26.68268268268268,0.8566009255137058,0.7759215915244237,0.945669193390194
27.01621621621622,0.8561596233319037,0.7749765014847518,0.945847131131691
27.34974974974975,0.855718548499396,0.7740172766190605,0.9460437852814216
27.683283283283284,0.8552777008990567,0.7730442999393835,0.9462587664284379
28.016816816816817,0.8548370804138211,0.7720579526246802,0.9464916870115613
28.35035035035035,0.8543966869266838,0.7710586133907665,0.9467421619494167
28.683883883883883,0.8539565203207015,0.7700466579090837,0.9470098092216371
29.01741741741742,0.8535165804789887,0.7690224582736647,0.9472942504018588
29.350950950950953,0.8530768672847217,0.7679863825153574,0.947595111143474
29.684484484484486,0.8526373806211374,0.7669387941620583,0.9479120216193645
30.01801801801802,0.8521981203715313,0.7658800518434931,0.948244616917086
30.35155155155155,0.8517590864192602,0.7648105089388887,0.9485925373911703
30.685085085085085,0.8513202786477402,0.7637305132657093,0.9489554289743556
31.01861861861862,0.8508816969404489,0.7626404068075295,0.949332943449686
31.352152152152154,0.8504433411809219,0.7615405254790105,0.9497247386854979
31.685685685685687,0.8500052112527557,0.7604311989259136,0.9501304788353822
32.019219219219224,0.8495673070396083,0.7593127503580301,0.950549834505224
32.35275275275276,0.849129628425195,0.7581854964129086,0.9509824828894391
32.68628628628629,0.8486921752932919,0.7570497470482843,0.951428107878518
33.01981981981982,0.8482549475277366,0.7559058054611313,0.9518864001399465
33.353353353353356,0.8478179450124244,0.7547539680313045,0.952357057174527
33.68688688688689,0.8473811676313121,0.75359452428781,0.952839783350083
34.02042042042042,0.8469446152684139,0.7524277568957909,0.9533342899144374
34.353953953953955,0.8465082878078065,0.7512539416624124,0.9538402949895055
34.68748748748749,0.8460721851336248,0.7500733475598848,0.9543575235482357
35.02102102102102,0.845636307130064,0.748886236763976,0.9548857073760695
35.354554554554554,0.8452006536813782,0.7476928647064347,0.9554245850184869
35.68808808808809,0.844765224671882,0.746493480139843,0.9559739017161261
36.02162162162162,0.8443300199859497,0.745288325213507,0.956533409328863
36.35515515515516,0.843895039508013,0.7440776355590756,0.9571028662501567
36.68868868868869,0.8434602831225667,0.7428616403846898,0.9576820373128836
37.022222222222226,0.8430257507141611,0.7416405625765065,0.9582706936877674
37.35575575575576,0.8425914421674106,0.7404146188065833,0.9588686127754831
37.68928928928929,0.8421573573669848,0.73918401964613,0.9594755780933588
38.022822822822825,0.8417234961976151,0.7379489696832634,0.960091379157603
38.35635635635636,0.8412898585440923,0.7367096676444379,0.9607158113618416
38.68988988988989,0.8408564442912643,0.7354663065188098,0.9613486758527192
39.023423423423424,0.8404232533240406,0.7342190736848703,0.9619897794032466
39.35695695695696,0.839990285527389,0.732968151038712,0.9626389342844975
39.69049049049049,0.8395575407863375,0.7317137151233932,0.9632959581362207
40.02402402402402,0.8391250189859728,0.7304559372588846,0.9639606738368596
40.357557557557556,0.8386927200114405,0.7291949836721546,0.9646329093734397
40.691091091091096,0.8382606437479464,0.7279310156269939,0.9653124977117186
41.02462462462463,0.8378287900807525,0.726664189553209,0.9659992766669531
41.35815815815816,0.8373971588951827,0.7253946571748878,0.9666930887756195
41.691691691691695,0.8369657500766204,0.724122565637436,0.9673937811683415
42.02522522522523,0.8365345635105065,0.7228480576331511,0.9681012054442851
42.35875875875876,0.8361035990823418,0.7215712715251205,0.968815217547236
42.692292292292294,0.835672856677684,0.7202923414692564,0.9695356776435308
43.02582582582583,0.8352423361821537,0.7190113975343154,0.9702624500020208
43.35935935935936,0.8348120374814268,0.7177285658197574,0.9709954028761701
43.69289289289289,0.834381960461239,0.7164439685713501,0.9717344083884312
44.026426426426426,0.833952105007385,0.7151577242944129,0.9724793424169716
44.35995995995996,0.83352247100572,0.7138699478646368,0.9732300844848296
44.69349349349349,0.833093058342157,0.7125807506364141,0.9739865176515501
45.02702702702703,0.8326638669026662,0.7112902405486434,0.9747485284073514
45.360560560560565,0.8322348965732792,0.7099985222279799,0.9755160065698543
45.6940940940941,0.8318061472400827,0.7087056970895054,0.9762888451833723
46.02762762762763,0.8313776187892247,0.7074118634348239,0.9770669404208017
46.361161161161164,0.8309493111069132,0.7061171165475721,0.977850191488079
46.6946946946947,0.8305212240794111,0.7048215487863592,0.978638500531204
47.02822822822823,0.8300933575930431,0.7035252496751592,0.9794317725458341
47.36176176176176,0.8296657115341909,0.7022283059911716,0.9802299152893862
47.695295295295296,0.8292382857892963,0.7009308018501813,0.9810328391956552
48.02882882882883,0.828811080244856,0.6996328187894525,0.9818404572918829
48.36236236236236,0.8283840947874261,0.698334435848196,0.982652685118272
48.695895895895895,0.8279573293036265,0.6970357296456521,0.983469440649885
49.02942942942943,0.8275307836801316,0.6957367744568203,0.9842906442208684
49.36296296296297,0.8271044578036715,0.6944376422858993,0.9851162184509883
49.6964964964965,0.8266783515610377,0.6931384029374805,0.9859460881744212
50.030030030030034,0.8262524648390833,0.6918391240855406,0.9867801803707342
50.36356356356357,0.8258267975247096,0.6905398713402785,0.9876184240979944
50.6970970970971,0.8254013495048854,0.689240708312875,0.9884607504280224
51.03063063063063,0.8249761206666373,0.6879416966781944,0.9893070923836422
51.364164164164166,0.8245511108970447,0.6866428962354976,0.9901573848779335
51.6976976976977,0.8241263200832517,0.6853443649672281,0.9910115646554409
52.03123123123123,0.8237017481124524,0.684046159095898,0.9918695702352326
52.364764764764764,0.8232773948719082,0.6827483331391636,0.9927313418558341
52.6982982982983,0.8228532602489311,0.6814509399630982,0.9935968214218923
53.03183183183183,0.8224293441308926,0.6801540308337555,0.9944659524526065
53.36536536536536,0.8220056464052281,0.6788576554670521,0.9953386800318276
53.698898898898904,0.8215821669594221,0.6775618620770141,0.9962149507597539
54.03243243243244,0.821158905681026,0.6762666974224646,0.997094712706255
54.36596596596597,0.820735862457642,0.6749722068521642,0.997977915365671
54.6994994994995,0.8203130371769359,0.6736784343484888,0.9988645096131369
55.033033033033036,0.8198904297266234,0.6723854225696566,0.9997544476622969
55.36656656656657,0.8194680399944826,0.6710932128905831,1.0006476830244544
55.7001001001001,0.8190458678683569,0.6698018454423874,1.0015441704690426
56.033633633633634,0.8186239132361348,0.66851135915058435,1.0024438659853654
56.36716716716717,0.8182021759857697,0.6672217917720421,1.0033467267456533
56.7007007007007,0.8177806560052704,0.6659331799307071,1.0042527110692967
57.03423423423423,0.8173593531827076,0.6646455591521604,1.0051617783882738
57.367767767767766,0.8169382674062016,0.6633589638970282,1.0060738892136893
57.70130130130131,0.816517398563936,0.6620734275933055,1.0069890051034558
58.03483483483484,0.8160967465441521,0.660788982667607,1.0079070886310029
58.36836836836837,0.8156763112351482,0.6595056605753954,1.008828103355024
58.701901901901905,0.8152560925252789,0.6582234918302149,1.009752013790214
59.03543543543544,0.8148360903029583,0.6569425060319697,1.0106787853789745
59.36896896896897,0.8144163044566549,0.6556627318942724,1.0116083844640262
59.702502502502504,0.8139967348748962,0.6543841972709006,1.0125407782619396
60.03603603603604,0.813577381446267,0.6531069291813897,1.0134759348375104
60.36956956956957,0.8131582440594118,0.6518309538357897,1.014413823078987
60.7031031031031,0.8127393226030313,0.6505562966586143,1.0153544126740837
61.036636636636636,0.8123206169658808,0.6492829823120138,1.0162976740867826
61.37017017017017,0.8119021270367754,0.6480110347181968,1.0172435785348974
61.7037037037037,0.8114838527045887,0.6467404770811254,1.0181920979683499
62.03723723723724,0.8110657938582468,0.6454713319075054,1.0191432050481422
62.370770770770775,0.8106479503867376,0.6442036210271079,1.0200968731260296
62.70430430430431,0.8102303221791042,0.642937365612429,1.0210530762248238
63.03783783783784,0.8098129091244496,0.6416725861977234,1.0220117890193432
63.371371371371374,0.8093957111119271,0.6404093026974224,1.022972986817949
63.70490490490491,0.8089787280307573,0.6391475344239751,1.0239366455447174
64.03843843843845,0.8085619597702092,0.6378873001051054,1.024902741722117
64.37197197197197,0.808145406219608,0.6366286179005306,1.0258712524542808
64.70550550550551,0.8077290672683478,0.6353715054181548,1.0268421554108194
65.03903903903904,0.807312942805868,0.6341159797297307,1.027815428811079
65.37257257257258,0.8068970327216655,0.6328620573860456,1.0287910514089615
65.7061061061061,0.8064813369053014,0.6316097544316268,1.029769002478208
66.03963963963965,0.8060658552463896,0.6303590864189768,1.0307492617981135
66.37317317317317,0.8056505876345998,0.6291100684223705,1.0317318096397132
66.70670670670671,0.805235533959655,0.6278627150512192,1.0327166267523877
67.04024024024024,0.8048206941113468,0.6266170404630258,1.0337036943509206
67.37377377377378,0.8044060679795145,0.6253730583759248,1.0346929941028842
67.7073073073073,0.8039916554540567,0.6241307820808463,1.0356845081164792
68.04084084084084,0.8035774564249234,0.622890224453297,1.036678218928712
68.37437437437438,0.8031634707821205,0.6216513979647862,1.0376741094939557
68.70790790790791,0.8027496984157424,0.6204143146939121,1.0386721631729121
69.04144144144145,0.8023361392158777,0.6191789863370538,1.0396723637216827
69.37497497497498,0.8019227930727394,0.6179454242188387,1.040674695281575
69.70850850850852,0.8015096598765487,0.6167136393021799,1.0416791423687746
70.04204204204204,0.8010967395175917,0.6154836421980903,1.0426856898646388
70.37557557557558,0.8006840318862387,0.6142554431751803,1.0436943230062166
70.70910910910911,0.800271536872897,0.6130290521688438,1.044705027376935
71.04264264264265,0.7998592543680139,0.6118044787901884,1.04571778889765
71.37617617617617,0.7994471842621109,0.6105817323347142,1.0467325938180234
71.70970970970971,0.7990353264457786,0.609360821790717,1.047749428708083
72.04324324324324,0.7986236808096554,0.6081417558474338,1.0487682804500091
72.37677677677678,0.7982122472444004,0.6069245429029454,1.0497891362301404
72.71031031031032,0.7978010256407815,0.6057091910718967,1.0508119835314387
73.04384384384385,0.7973900158895898,0.6044957081929146,1.051836810125847
73.37737737737739,0.7969792178817008,0.6032841018358711,1.0528636040671477
73.71091091091091,0.7965686315080224,0.6020743793088864,1.0538923536838136
74.04444444444445,0.7961582566595143,0.6008665476651605,1.0549230475721991
74.37797797797798,0.7957480932272119,0.5996606137096041,1.0559556745899419
74.71151151151152,0.7953381411021864,0.5984565840052563,1.0569902238494306
75.04504504504504,0.7949284001756092,0.5972544648795576,1.0580266847116575
75.37857857857858,0.7945188703386339,0.5960542624303686,1.059065046779903
75.71211211211211,0.7941095514825283,0.5948559825319188,1.0601052998940712
76.04564564564565,0.7937004434986117,0.5936596308405067,1.0611474341248224
76.37917917917918,0.7932915462782438,0.5924652128000587,1.0621914397679633
76.71271271271272,0.7928828597128375,0.5912727336475401,1.0632373073390455
77.04624624624626,0.7924743836938565,0.590082198418208,1.0642850275680833
77.37977977977978,0.7920661181128411,0.5888936119507272,1.0653345913944763
77.71331331331332,0.791658062861385,0.5877069788921222,1.0663859899619805
78.04684684684685,0.7912502178311402,0.5865223037026052,1.0674392146138705
78.38038038038039,0.7908425829137867,0.5853395906602517,1.0684942568881675
78.71391391391391,0.7904351580010696,0.5841588438655759,1.069551108513131
79.04744744744745,0.7900279429848307,0.5829800672459767,1.0706097614028678
79.38098098098098,0.7896209377569139,0.5818032645600112,1.0716702076528068
79.71451451451452,0.7892141422092457,0.5806284394016202,1.0727324395356468
80.04804804804805,0.7888075562337925,0.5794555952041884,1.0737964494971712
80.38158158158159,0.7884011797226091,0.5782847352445324,1.0748622301523543
80.71511511511511,0.7879950125677787,0.5771158626467346,1.0759297742813603
81.04864864864865,0.7875890546614344,0.5759489803859074,1.0769990748258116
81.38218218218219,0.7871833058957869,0.5747840912918574,1.0780701248851672
81.71571571571572,0.7867777661630645,0.5736211980526168,1.0791429177130252
82.04924924924926,0.786372435355613,0.5724603032179416,1.080217446713844
82.38278278278278,0.785967313365796,0.571301409202642,1.08129370543935
82.71631631631632,0.785562400086016,0.5701445182898663,1.0823716875852845
83.04984984984985,0.785157695408748,0.5689896326343066,1.0834513869882538
83.38338338338339,0.7847531992265454,0.5678367542653047,1.0845327976226182
83.71691691691692,0.7843489114319995,0.5666858850898644,1.0856159135973615
84.05045045045046,0.7839448319177179,0.5655370268955857,1.0867007291530817
84.38398398398398,0.7835409605764182,0.5643901813535701,1.0877872386592904
84.71751751751752,0.7831372973008677,0.5632453500211899,1.0888754366114775
85.05105105105105,0.7827338419838729,0.5621025343448046,1.0899653176283481
85.38458458458459,0.7823305945182787,0.5609617356624116,1.091056876449148
85.71811811811813,0.7819275547970213,0.5598229552062467,1.0921501079311695
86.05165165165165,0.7815247227130563,0.5586861941052734,1.0932450070470687
86.3851851851852,0.7811220981594349,0.5575514533876594,1.0943415688825513
86.71871871871872,0.7807196810292448,0.5564187339831456,1.0954397886338398
87.05225225225226,0.7803174712156017,0.5552880367253689,1.0965396616053071
87.38578578578579,0.7799154686117115,0.5541593623541515,1.0976411832073212
87.71931931931933,0.7795136731108318,0.5530327115176995,1.0987443489539288
88.05285285285285,0.7791120846062763,0.551908084774758,1.099849154460692
88.38638638638639,0.7787107029913886,0.550785482596702,1.1009555954425105
88.71991991991992,0.7783095281595569,0.5496649053695909,1.102063667711584
89.05345345345346,0.7779085600042992,0.5485463533961938,1.1031733671755755
