dose,RR,lb,ub
0,1,1,1
0.10307307307307308,0.9964612656162101,0.9935732051420061,0.999357720935665
0.20614614614614615,0.9929364269211802,0.9871905624328421,0.9987157347587304
0.30921921921921924,0.989426793224278,0.9808545816779706,0.9980739219011848
0.4122922922922923,0.9859336547676547,0.9745677024614009,0.9974321631513383
0.5153653653653654,0.9824582829426826,0.9683322954697117,0.9967903396782609
0.6184384384384385,0.9790019305229175,0.9621506638742763,0.9961483330565356
0.7215115115115115,0.9755658319131489,0.9560250447683568,0.9955060252914154
0.8245845845845846,0.9721512034141055,0.949957610655847,0.9948632988444772
0.9276576576576577,0.9687592435023963,0.9439504709885524,0.9942200366598647
1.0307307307307307,0.965391133125278,0.9380056737490173,0.9935761221912167
1.1338038038038039,0.9620480360098476,0.9321252070760214,0.9929314394293822
1.236876876876877,0.9587310989862723,0.9263110009299901,0.9922858729310238
1.33994994994995,0.955441452324682,0.9205649287956839,0.9916393078482197
1.443023023023023,0.9521802100853566,0.9148888094196519,0.9909916299591793
1.546096096096096,0.9489484704818597,0.9092844085800589,0.9903427257001902
1.6491691691691692,0.9457473162567785,0.9037534408866182,0.9896924821989278
1.7522422422422423,0.9425778150697451,0.8982975716084859,0.9890407873092615
1.8553153153153155,0.9394410198974265,0.8929184185280933,0.988387529647704
1.9583883883883884,0.9363379694451889,0.8876175538190222,0.9877325986316594
2.0614614614614615,0.9332696885701517,0.882396505946145,0.9870758845196366
2.1645345345345346,0.9302371887153629,0.8772567615863761,0.9864172784536113
2.2676076076076077,0.9272414683548459,0.8721997675685013,0.985756672503728
2.370680680680681,0.9242835134492792,0.8672269328306713,0.9850939597155575
2.473753753753754,0.921364297912087,0.8623396303942629,0.9844290341601362
2.576826826826827,0.9184847840857395,0.857539199352927,0.9837617909870398
2.6798998998999,0.9156459232280704,0.8528269468757582,0.9830921264807624
2.782972972972973,0.9128486560084426,0.8482041502236304,0.9824199381206999
2.886046046046046,0.9100939130136076,0.8436720587778526,0.9817451246450634
2.989119119119119,0.9073826135191086,0.8392318927173107,0.9810675862792853
3.092192192192192,0.9047152397874346,0.8348840250867321,0.980387263989875
3.1952652652652653,0.9020912875739192,0.8306269373996126,0.9797041902642621
3.2983383383383384,0.8995101231535363,0.8264588826407889,0.9790184105352091
3.4014114114114116,0.8969711222498012,0.8223781530794969,0.9783299703880796
3.5044844844844847,0.8944736698254386,0.8183830791619758,0.9776389155434064
3.607557557557558,0.892017159877507,0.8144720284338042,0.976945291842645
3.710630630630631,0.8896009952368711,0.8106434044915356,0.976249145236455
3.813703703703704,0.8872245873719218,0.806895645963097,0.9755505217750022
3.9167767767767767,0.8848873561964415,0.8032272255163314,0.9748494675998844
4.01984984984985,0.8825887298815194,0.7996366488950225,0.9741460289373718
4.122922922922923,0.88032814467142,0.7961224539817076,0.9734402520927153
4.225995995995996,0.8781050447033143,0.7926832098865653,0.9727321834453277
4.329069069069069,0.875918881830784,0.7893175160616647,0.9720218694446806
4.432142142142142,0.87376911545101,0.7860240014398565,0.9713093566067886
4.535215215215215,0.8716552123355623,0.7828013235975982,0.9705946915111799
4.6382882882882885,0.8695766464647078,0.7796481679410135,0.9698779207982657
4.741361361361362,0.8675328988651562,0.7765632469144991,0.9691590911670397
4.844434434434435,0.8655234574511654,0.7735452992312054,0.9684382493730485
4.947507507507508,0.8635478168689316,0.7705930891247394,0.9677154422265853
5.050580580580581,0.861605478344188,0.7677054056214478,0.9669907165910635
5.153653653653654,0.8596959495329444,0.7648810618326611,0.9662641193815366
5.256726726726727,0.857818744375293,0.7621188942662969,0.9655356975633322
5.3597997997998,0.8559733829522163,0.7594177621572374,0.9648054981507767
5.4628728728728735,0.8541593913453281,0.7567765468159146,0.9640735682059836
5.565945945945946,0.8523763014994868,0.754194150994555,0.9633399548376892
5.669019019019019,0.8506236510882147,0.7516694982705551,0.9626047052001135
5.772092092092092,0.8489009833818654,0.7492015324464706,0.9618678664918326
5.875165165165165,0.8472078471184786,0.746789216966128,0.9611294859546463
5.978238238238238,0.8455437963772657,0.7444315343463753,0.9603896108724269
6.081311311311311,0.84390839045467,0.742127485624011,0.959648288569936
6.184384384384384,0.8423011937429472,0.7398760898174431,0.9589055664115982
6.2874574574574575,0.8407217756112129,0.7376763834026477,0.9581614918002179
6.390530530530531,0.8391697102889069,0.7355274198030078,0.9574161121756294
6.493603603603604,0.8376445767516233,0.7334282688926334,0.9566694750132689
6.596676676676677,0.8361459586092583,0.7313780165127723,0.9559216278226571
6.69974974974975,0.8346734439964284,0.7293757640009405,0.9551726181457828
6.802822822822823,0.8332266254651127,0.7274206277324063,0.9544224935553746
6.905895895895896,0.8318050998794762,0.725511738673687,0.9536713016530538
7.008968968968969,0.830408468312829,0.7236482419477167,0.9529190900673542
7.1120420420420425,0.8290363359466805,0.7218292964103667,0.9521659064515996
7.215115115115116,0.8276883119718463,0.720054074238005,0.9514117984816285
7.318188188188189,0.8263640094915707,0.7183217605257951,0.9506568138533545
7.421261261261262,0.8250630454266223,0.7166315528964472,0.9499010002801506
7.524334334334335,0.8237850404223297,0.7149826611191422,0.9491444054900462
7.627407407407408,0.8225296187575161,0.7133743067383629,0.9483870772227264
7.73048048048048,0.8212964082553017,0.7118057227123733,0.9476290632263189
7.833553553553553,0.8200850401957366,0.7102761530610999,0.946870411253958
7.9366266266266265,0.818895149230232,0.708784852523178,0.94611116906011306
8.0396996996997,0.8177263732977569,0.7073310862219323,0.9453513843966678
8.142772772772773,0.8165783535427701,0.7059141293400744,0.9445911050087369
8.245845845845846,0.8154507342348538,0.7045332668029047,0.9438303786302068
8.348918918918919,0.8143431626900232,0.7031877929698184,0.9430692529789874
8.451991991991992,0.8132552891936798,0.7018770113339186,0.942307775751957
8.555065065065065,0.8121867669251838,0.700600234229553,0.941545994619591
8.658138138138138,0.811137251884014,0.6993567825475943,0.940783957220254
8.761211211211211,0.810106402817494,0.6981459854582932,0.9400217111541426
8.864284284284285,0.8090938811500559,0.6969671801415408,0.9392593039768633
8.967357357357358,0.8080993509140169,0.695819711524383,0.9384967831926272
9.07043043043043,0.80712247868184706,0.6947029320256382,0.937734196247047
9.173503503503504,0.8061629334999021,0.6936162013074719,0.9369715905195173
9.276576576576577,0.8052203868236008,0.6925588860337963,0.9362090133151635
9.37964964964965,0.8042945124540237,0.6915303596353586,0.9354465118563389
9.482722722722723,0.8033849864759142,0.6905300020813964,0.9346841332736544
9.585795795795796,0.8024914871970575,0.6895571996577414,0.9339219245965208
9.68886886886887,0.8016136950890228,0.6886113447512562,0.9331599327431856
9.791941941941943,0.8007512927292441,0.6876918356404963,0.9323982045102484
9.895015015015016,0.7999039647444254,0.6867980762924972,0.9316367865616295
9.998088088088089,0.7990713977552494,0.6859294761655841,0.930875725416981
10.101161161161162,0.7982532803223739,0.6850854500181167,0.9301150674395139
10.204234234234235,0.7974493028936976,0.6842654177230754,0.9293548588232259
10.307307307307308,0.7966591577528808,0.6834688040884092,0.9285951455795093
10.410380380380381,0.7958825389691024,0.6826950386830637,0.9278359735231206
10.513453453453455,0.795119142348041,0.681943555668613,0.9270773882574906
10.616526526526528,0.7943686653840634,0.6812137936364262,0.9263194351593583
10.7195995995996,0.7936308072136059,0.6805051954502986,0.9255621593627075
10.822672672672674,0.7929052685697364,0.6798172080944832,0.9248056057419884
10.925745745745747,0.7921917517378827,0.6791492825270629,0.9240498188946077
11.028818818818818,0.7914899605127118,0.6785008735386022,0.9232948431226636
11.131891891891891,0.7907996001561542,0.6778714396160292,0.9225407224139169
11.234964964964965,0.7901203773565538,0.6772604428116863,0.9217875004219732
11.338038038038038,0.7894520001889356,0.676667348617509,0.9210352204456651
11.44111111111111,0.7887941780763802,0.6760916258442793,0.9202839254076186
11.544184184184184,0.7881466217524928,0.675532746505909,0.919533657831987
11.647257257257257,0.7875090432249565,0.674990185708711,0.9187844598213435
11.75033033033033,0.7868811557401602,0.6744634215456132,0.9180363730327153
11.853403403403403,0.7862626737488912,0.6739519349952775,0.917289438652754
11.956476476476476,0.7856533128730838,0.6734552098260808,0.916543697372029
12.05954954954955,0.7850527898736122,0.6729727325049228,0.9157991893584387
12.162622622622623,0.7844608226191228,0.6725039921108183,0.9150559542297344
12.265695695695696,0.7838771300558933,0.6720484802532375,0.9143140310251507
12.368768768768769,0.7833014321787154,0.6716056909951593,0.9135734581761442
12.471841841841842,0.782733450002787,0.6711751207807967,0.9128342734762389
12.574914914914915,0.782172905536612,0.6707562683679535,0.9120965140499837
12.677987987987988,0.7816195217558968,0.6703486347649803,0.9113602163210258
12.781061061061061,0.7810730225784394,0.6699517231722854,0.9106254159793121
12.884134134134134,0.7805331328399994,0.6695650389283546,0.9098921479474282
12.987207207207208,0.7799995782711485,0.6691880894602503,0.9091604463460917
13.09028028028028,0.7794720854750903,0.6688203842385293,0.9084303444588184
13.193353353353354,0.7789503819064448,0.6684614347365448,0.9077018746957856
13.296426426426427,0.7784341958509947,0.6681107543940813,0.9069750685569161
13.3994994994995,0.7779232564063797,0.66776785858526,0.9062499565942183
13.502572572572573,0.7774172934637439,0.667432264590679,0.9055265683734124
13.605645645645646,0.7769160376903218,0.6671034915737113,0.9048049324348878
13.70871871871872,0.7764192205129626,0.666781060560912,0.9040850762540321
13.811791791791793,0.7759265741025888,0.6664644944264674,0.9033670262009842
13.914864864864866,0.7754378313595759,0.6661533178806055,0.9026508074998638
14.017937937937939,0.7749527259000625,0.6658470574619156,0.9019364441875409
14.121011011011012,0.7744709920431712,0.6655452415334758,0.9012239590720063
14.224084084084085,0.7739923647991468,0.6652474002827236,0.9005133736904184
14.327157157157158,0.773516579858404,0.6649530657249739,0.8998047082669026
14.430230230230231,0.7730433735814751,0.6646617717104881,0.8990979816701835
14.533303303303304,0.7725724829898648,0.6643730539350069,0.8983932113711437
14.636376376376377,0.7721036457577957,0.664086449953631,0.8976904134004008
14.73944944944945,0.771636600204849,0.6638014991979491,0.8969896023060046
14.842522522522524,0.7711710852894961,0.6635177429962975,0.8962907911113654
14.945595595595597,0.7707068406035088,0.6632347245970223,0.895593991273522
15.04866866866867,0.7702436063672569,0.6629519891946295,0.8948992126418736
15.151741741741743,0.7697811234258783,0.6626690839586812,0.8942064634175009
15.254814814814816,0.7693191334385001,0.6623855583978049,0.8935157501110854
15.35788788788789,0.7688574457055787,0.6621010799566159,0.892827076880227
15.46096096096096,0.7683960350430605,0.6618156028827173,0.892140445311515
15.564034034034034,0.7679349012846691,0.6615291247641735,0.891455856643233
15.667107107107107,0.7674740442642269,0.6612416432213857,0.8907733120826514
15.77018018018018,0.7670134638156568,0.6609531559076451,0.8900928128054756
15.873253253253253,0.7665531597729816,0.6606636605096855,0.8894143599552919
15.976326326326326,0.7660931319703224,0.6603731547482302,0.8887379546430156
16.0793993993994,0.7656333802419005,0.6600816363785459,0.8880635979463393
16.182472472472472,0.7651739044220375,0.6597891031909912,0.8873912909091825
16.285545545545546,0.7647147043451531,0.6594955530115623,0.8867210345411418
16.38861861861862,0.764255779845768,0.6592009837024435,0.8860528298169438
16.491691691691692,0.7637971307585002,0.6589053931625454,0.8853866776758981
16.594764764764765,0.7633387569180683,0.6586087793280544,0.8847225790213535
16.697837837837838,0.7628806581592898,0.6583111401729702,0.8840605347201553
16.80091091091091,0.7624228343170812,0.6580124737096457,0.8834005456021047
16.903983983983984,0.7619652852264585,0.6577127779893226,0.8827426124594216
17.007057057057057,0.761508010722536,0.6574120511026659,0.8820867360462088
17.11013013013013,0.7610510106405275,0.6571102911802948,0.8814329170779194
17.213203203203204,0.7605942848157454,0.6568074963933104,0.8807811562308279
17.316276276276277,0.7601378330836013,0.6565036649538211,0.8801314541415035
17.41934934934935,0.7596816552796047,0.6561987951154631,0.8794838114062863
17.522422422422423,0.7592257512393653,0.6558928851739206,0.8788382285807698
17.625495495495496,0.7587701207985901,0.6555859334674367,0.8781947061792837
17.72856856856857,0.7583147637930853,0.6552779383773255,0.8775532446743834
17.831641641641642,0.7578596800587554,0.6549688983284776,0.876913844496342
17.934714714714715,0.7574048694316037,0.6546588117898618,0.8762765060326473
18.03778778778779,0.7569503317477316,0.6543476772750209,0.8756412296275047
18.14086086086086,0.7564960668433389,0.6540354933425645,0.8750080155813421
18.243933933933935,0.7560420745547238,0.6537222585966561,0.8743768641503229
18.347007007007008,0.7555883547182831,0.6534079716874944,0.8737477755458622
18.45008008008008,0.755134907170511,0.6530926313117895,0.873120749934149
18.553153153153154,0.7546817317480004,0.6527762362132332,0.8724957874356744
18.656226226226227,0.7542288282874419,0.6524587851829644,0.8718728881247662
18.7592992992993,0.7537761966256247,0.6521402770600275,0.8712520520291269
18.862372372372374,0.7533238365994349,0.651820710731823,0.870633279129383
18.965445445445447,0.752871748045858,0.6515000851345574,0.8700165693586345
19.06851851851852,0.7524199308019758,0.6511783992536767,0.8694019226020167
19.171591591591593,0.7519683847049684,0.6508556521243027,0.8687893386962653
19.274664664664666,0.7515171095921149,0.6505318428316589,0.8681788174292909
19.37773773773774,0.7510661053007892,0.6502069705114809,0.8675703585397592
19.480810810810812,0.7506153716684657,0.6498810343504379,0.8669639617166791
19.583883883883885,0.750164908532715,0.649554033586526,0.8663596265989996
19.68695695695696,0.749714715731205,0.6492259675094657,0.865757352775213
19.79003003003003,0.7492647931017021,0.6488968354610914,0.865157139782967
19.893103103103105,0.7488151404820678,0.6485666368357221,0.864558987108686
19.996176176176178,0.7483657577102637,0.6482353710805417,0.8639628941871981
20.09924924924925,0.7479166446243471,0.6479030376959505,0.8633688604013752
20.202322322322324,0.7474678010624722,0.6475696362359211,0.8627768850817771
20.305395395395397,0.7470192268628919,0.6472351663083444,0.8621869675063085
20.40846846846847,0.7465709218639532,0.6468996275753562,0.8615991068998817
20.511541541541543,0.7461228859041039,0.6465630197536711,0.8610133024340936
20.614614614614617,0.7456751188218861,0.6462253426148891,0.8604295532269072
20.71768768768769,0.7452276204559399,0.6458865959858058,0.8598478583423451
20.820760760760763,0.7447803906450021,0.6455467797487049,0.8592682167901943
20.923833833833836,0.744333429227905,0.645205893841644,0.8586906275257175
21.02690690690691,0.7438867360435796,0.6448639382587319,0.8581150894493784
21.129979979979982,0.7434403109310528,0.6445209130503908,0.8575416014065756
21.233053053053055,0.7429941537294477,0.6441768183236094,0.8569701621873864
21.33612612612613,0.7425482642779844,0.6438316542421887,0.8564007705263227
21.4391991991992,0.742102642415978,0.6434854210269707,0.8558334251020964
21.542272272272275,0.7416572879828436,0.6431381189560683,0.855268124537398
21.645345345345348,0.7412122008180887,0.6427897483650633,0.8547048673986835
21.74841841841842,0.7407673807613201,0.6424403096472172,0.854143652195974
21.851491491491494,0.7403228276522393,0.6420898032536508,0.8535844773826673
21.954564564564567,0.7398785413306425,0.6417382296935211,0.8530273413553592
22.057637637637637,0.739434521636426,0.6413855895341948,0.8524722424536793
22.16071071071071,0.7389907684095792,0.6410318834013895,0.8519191789601344
22.263783783783783,0.7385472814901887,0.6406771119793221,0.8513681490999675
22.366856856856856,0.7381040607184356,0.6403212760108332,0.8508191510410267
22.46992992992993,0.7376611059345997,0.6399643762975111,0.8502721828936478
22.573003003003002,0.7372184169790534,0.6396064136997882,0.8497272427105454
22.676076076076075,0.7367759936922678,0.6392473891370416,0.8491843284867214
22.77914914914915,0.736333835914808,0.6388873035876682,0.8486434381593818
22.88222222222222,0.735891943487334,0.6385261580891531,0.8481045696078662
22.985295295295295,0.735450316250604,0.6381639537381318,0.8475677206535931
23.088368368368368,0.7350089540454698,0.6378006916904253,0.8470328890600132
23.19144144144144,0.7345678567128797,0.6374363731610755,0.8465000725325779
23.294514514514514,0.7341270240938772,0.6370709994243628,0.8459692687187198
23.397587587587587,0.7336864560295995,0.636704571813808,0.8454404752078452
23.50066066066066,0.7332461523612821,0.6363370917221726,0.8449136895313415
23.603733733733733,0.7328061129302543,0.6359685606014328,0.8443889091625935
23.706806806806807,0.7323663375779405,0.6355989799627487,0.8438661315170157
23.80987987987988,0.7319268261458605,0.6352283513764185,0.843345353952097
23.912952952952953,0.7314875784756281,0.6348566764718202,0.8428265737674553
24.016026026026026,0.7310485944089545,0.6344839569373464,0.842309788204908
24.1190990990991,0.7306098737876435,0.6341101945203098,0.8417949944485551
24.222172172172172,0.7301714164535961,0.6337353910268585,0.8412821896248734
24.325245245245245,0.7297332222488065,0.6333595483218587,0.8407713708028233
24.42831831831832,0.72929529101536394,0.6329826683287759,0.8402625349939697
24.53139139139139,0.7288576225954535,0.6326047530295416,0.8397556791526176
24.634464464464465,0.7284202168313534,0.6322258044644029,0.8392508001759533
24.737537537537538,0.7279830735654355,0.6318458247317633,0.8387478949042056
24.84061061061061,0.7275461926401724,0.6314648159880218,0.8382469601208178
24.943683683683684,0.727109573898124,0.6310827804473652,0.8377479925526288
25.046756756756757,0.7266732171819483,0.6306997203815906,0.8372509888700694
25.14982982982983,0.7262371223343967,0.6303156381198862,0.8367559456873732
25.252902902902903,0.7258012891983139,0.6299305360486102,0.8362628595627939
25.355975975975976,0.7253657176166434,0.6295444166110646,0.8357717269988423
25.45904904904905,0.7249304074324182,0.6291572823072343,0.8352825444425268
25.562122122122123,0.724495358488767,0.6287691356935384,0.8347953082856149
25.665195195195196,0.7240605706289122,0.6283799793825554,0.8343100148649006
25.76826826826827,0.7236260436961697,0.6279898160427426,0.8338266604624859
25.871341341341342,0.7231917775339559,0.6275986483981499,0.8333452413060751
25.974414414414415,0.7227577719857706,0.6272064792280891,0.8328657535692764
26.07748748748749,0.7223240268952159,0.6268133113668451,0.8323881933719226
26.18056056056056,0.7218905421059819,0.6264191477033247,0.8319125567803943
26.283633633633634,0.7214573174618556,0.6260239911807297,0.8314388398079634
26.386706706706708,0.7210243528067204,0.6256278447962039,0.8309670384151424
26.48977977977978,0.7205916479845474,0.6252307116004585,0.8304971485100432
26.592852852852854,0.7201592028394067,0.6248325946974147,0.830029165948752
26.695925925925927,0.7197270172154568,0.6244334972438034,0.8295630865357119
26.798998998999,0.7192950909569524,0.6240334224487822,0.8290989060241161
26.902072072072073,0.7188634239082456,0.6236323735735322,0.8286366201163139
27.005145145145146,0.7184320159137749,0.6232303539308233,0.8281762244642229
27.10821821821822,0.7180008668180777,0.6228273668846097,0.8277177146697562
27.211291291291293,0.7175699764657799,0.6224234158495778,0.8272610862852535
27.314364364364366,0.7171393447016009,0.6220185042907069,0.8268063348139292
