dose,RR
0,1
1,0.966581065
2,0.934626837
3,0.904402122
4,0.8761328
5,0.850011946
6,0.826206338
7,0.804863253
8,0.786117458
9,0.770056552
10,0.756506428
11,0.745214632
12,0.735957338
13,0.728534612
14,0.722766124
15,0.718487483
16,0.715547072
17,0.71380332
18,0.713122333
19,0.713375842
20,0.714439426
21,0.716190983
22,0.718509431
23,0.721273628
24,0.724361496
25,0.727649358
26,0.731014809
27,0.73439795
28,0.737796749
29,0.741211278
30,0.744641609
31,0.748087815
32,0.751549971
33,0.75502815
34,0.758522425
35,0.762032873
36,0.765559566
37,0.769102581
38,0.772661993
39,0.776237879
40,0.779830313
41,0.783439373
42,0.787065136
43,0.790707679
44,0.79436708
45,0.798043416
46,0.801736767
47,0.80544721
48,0.809174826
49,0.812919693
50,0.816681891
51,0.816681891
52,0.816681891
53,0.816681891
54,0.816681891
55,0.816681891
56,0.816681891
57,0.816681891
58,0.816681891
59,0.816681891
60,0.816681891
61,0.816681891
62,0.816681891
63,0.816681891
64,0.816681891
65,0.816681891
66,0.816681891
67,0.816681891
68,0.816681891
69,0.816681891
70,0.816681891
71,0.816681891
72,0.816681891
73,0.816681891
74,0.816681891
75,0.816681891
76,0.816681891
77,0.816681891
78,0.816681891
79,0.816681891
80,0.816681891
81,0.816681891
82,0.816681891
83,0.816681891
84,0.816681891
85,0.816681891
86,0.816681891
87,0.816681891
88,0.816681891
89,0.816681891
90,0.816681891
91,0.816681891
92,0.816681891
93,0.816681891
94,0.816681891
95,0.816681891
96,0.816681891
97,0.816681891
98,0.816681891
99,0.816681891
100,0.816681891
101,0.816681891
102,0.816681891
103,0.816681891
104,0.816681891
105,0.816681891
106,0.816681891
107,0.816681891
108,0.816681891
109,0.816681891
110,0.816681891
111,0.816681891
112,0.816681891
113,0.816681891
114,0.816681891
115,0.816681891
116,0.816681891
117,0.816681891
118,0.816681891
119,0.816681891
120,0.816681891
121,0.816681891
122,0.816681891
123,0.816681891
124,0.816681891
125,0.816681891
126,0.816681891
127,0.816681891
128,0.816681891
129,0.816681891
130,0.816681891
131,0.816681891
132,0.816681891
133,0.816681891
134,0.816681891
135,0.816681891
136,0.816681891
137,0.816681891
138,0.816681891
139,0.816681891
140,0.816681891
141,0.816681891
142,0.816681891
143,0.816681891
144,0.816681891
145,0.816681891
146,0.816681891
147,0.816681891
148,0.816681891
149,0.816681891
150,0.816681891
151,0.816681891
152,0.816681891
153,0.816681891
154,0.816681891
155,0.816681891
156,0.816681891
157,0.816681891
158,0.816681891
159,0.816681891
160,0.816681891
161,0.816681891
162,0.816681891
163,0.816681891
164,0.816681891
165,0.816681891
166,0.816681891
167,0.816681891
168,0.816681891
169,0.816681891
170,0.816681891
171,0.816681891
172,0.816681891
173,0.816681891
174,0.816681891
175,0.816681891
176,0.816681891
177,0.816681891
178,0.816681891
179,0.816681891
180,0.816681891
181,0.816681891
182,0.816681891
183,0.816681891
184,0.816681891
185,0.816681891
186,0.816681891
187,0.816681891
188,0.816681891
189,0.816681891
190,0.816681891
191,0.816681891
192,0.816681891
193,0.816681891
194,0.816681891
195,0.816681891
196,0.816681891
197,0.816681891
198,0.816681891
199,0.816681891
200,0.816681891
201,0.816681891
202,0.816681891
203,0.816681891
204,0.816681891
205,0.816681891
206,0.816681891
207,0.816681891
208,0.816681891
209,0.816681891
210,0.816681891
211,0.816681891
212,0.816681891
213,0.816681891
214,0.816681891
215,0.816681891
216,0.816681891
217,0.816681891
218,0.816681891
219,0.816681891
220,0.816681891
221,0.816681891
222,0.816681891
223,0.816681891
224,0.816681891
225,0.816681891
226,0.816681891
227,0.816681891
228,0.816681891
229,0.816681891
230,0.816681891
231,0.816681891
232,0.816681891
233,0.816681891
234,0.816681891
235,0.816681891
236,0.816681891
237,0.816681891
238,0.816681891
239,0.816681891
240,0.816681891
241,0.816681891
242,0.816681891
243,0.816681891
244,0.816681891
245,0.816681891
246,0.816681891
247,0.816681891
248,0.816681891
249,0.816681891
250,0.816681891
251,0.816681891
252,0.816681891
253,0.816681891
254,0.816681891
255,0.816681891
256,0.816681891
257,0.816681891
258,0.816681891
259,0.816681891
260,0.816681891
261,0.816681891
262,0.816681891
263,0.816681891
264,0.816681891
265,0.816681891
266,0.816681891
267,0.816681891
268,0.816681891
269,0.816681891
270,0.816681891
271,0.816681891
272,0.816681891
273,0.816681891
274,0.816681891
275,0.816681891
276,0.816681891
277,0.816681891
278,0.816681891
279,0.816681891
280,0.816681891
281,0.816681891
282,0.816681891
283,0.816681891
284,0.816681891
285,0.816681891
286,0.816681891
287,0.816681891
288,0.816681891
289,0.816681891
290,0.816681891
291,0.816681891
292,0.816681891
293,0.816681891
294,0.816681891
295,0.816681891
296,0.816681891
297,0.816681891
298,0.816681891
299,0.816681891
300,0.816681891
301,0.816681891
302,0.816681891
303,0.816681891
304,0.816681891
305,0.816681891
306,0.816681891
307,0.816681891
308,0.816681891
309,0.816681891
310,0.816681891
311,0.816681891
312,0.816681891
313,0.816681891
314,0.816681891
315,0.816681891
316,0.816681891
317,0.816681891
318,0.816681891
319,0.816681891
320,0.816681891
321,0.816681891
322,0.816681891
323,0.816681891
324,0.816681891
325,0.816681891
326,0.816681891
327,0.816681891
328,0.816681891
329,0.816681891
330,0.816681891
331,0.816681891
332,0.816681891
333,0.816681891
334,0.816681891
335,0.816681891
336,0.816681891
337,0.816681891
338,0.816681891
339,0.816681891
340,0.816681891
341,0.816681891
342,0.816681891
343,0.816681891
344,0.816681891
345,0.816681891
346,0.816681891
347,0.816681891
348,0.816681891
349,0.816681891
350,0.816681891
351,0.816681891
352,0.816681891
353,0.816681891
354,0.816681891
355,0.816681891
356,0.816681891
357,0.816681891
358,0.816681891
359,0.816681891
360,0.816681891
361,0.816681891
362,0.816681891
363,0.816681891
364,0.816681891
365,0.816681891
366,0.816681891
367,0.816681891
368,0.816681891
369,0.816681891
370,0.816681891
371,0.816681891
372,0.816681891
373,0.816681891
374,0.816681891
375,0.816681891
376,0.816681891
377,0.816681891
378,0.816681891
379,0.816681891
380,0.816681891
381,0.816681891
382,0.816681891
383,0.816681891
384,0.816681891
385,0.816681891
386,0.816681891
387,0.816681891
388,0.816681891
389,0.816681891
390,0.816681891
391,0.816681891
392,0.816681891
393,0.816681891
394,0.816681891
395,0.816681891
396,0.816681891
397,0.816681891
398,0.816681891
399,0.816681891
400,0.816681891
401,0.816681891
402,0.816681891
403,0.816681891
404,0.816681891
405,0.816681891
406,0.816681891
407,0.816681891
408,0.816681891
409,0.816681891
410,0.816681891
411,0.816681891
412,0.816681891
413,0.816681891
414,0.816681891
415,0.816681891
416,0.816681891
417,0.816681891
418,0.816681891
419,0.816681891
420,0.816681891
421,0.816681891
422,0.816681891
423,0.816681891
424,0.816681891
425,0.816681891
426,0.816681891
427,0.816681891
428,0.816681891
429,0.816681891
430,0.816681891
431,0.816681891
432,0.816681891
433,0.816681891
434,0.816681891
435,0.816681891
436,0.816681891
437,0.816681891
438,0.816681891
439,0.816681891
440,0.816681891
441,0.816681891
442,0.816681891
443,0.816681891
444,0.816681891
445,0.816681891
446,0.816681891
447,0.816681891
448,0.816681891
449,0.816681891
450,0.816681891
451,0.816681891
452,0.816681891
453,0.816681891
454,0.816681891
455,0.816681891
456,0.816681891
457,0.816681891
458,0.816681891
459,0.816681891
460,0.816681891
461,0.816681891
462,0.816681891
463,0.816681891
464,0.816681891
465,0.816681891
466,0.816681891
467,0.816681891
468,0.816681891
469,0.816681891
470,0.816681891
471,0.816681891
472,0.816681891
473,0.816681891
474,0.816681891
475,0.816681891
476,0.816681891
477,0.816681891
478,0.816681891
479,0.816681891
480,0.816681891
481,0.816681891
482,0.816681891
483,0.816681891
484,0.816681891
485,0.816681891
486,0.816681891
487,0.816681891
488,0.816681891
489,0.816681891
490,0.816681891
491,0.816681891
492,0.816681891
493,0.816681891
494,0.816681891
495,0.816681891
496,0.816681891
497,0.816681891
498,0.816681891
499,0.816681891
500,0.816681891
501,0.816681891
502,0.816681891
503,0.816681891
504,0.816681891
505,0.816681891
506,0.816681891
507,0.816681891
508,0.816681891
509,0.816681891
510,0.816681891
511,0.816681891
512,0.816681891
513,0.816681891
514,0.816681891
515,0.816681891
516,0.816681891
517,0.816681891
518,0.816681891
519,0.816681891
520,0.816681891
521,0.816681891
522,0.816681891
523,0.816681891
524,0.816681891
525,0.816681891
526,0.816681891
527,0.816681891
528,0.816681891
529,0.816681891
530,0.816681891
531,0.816681891
532,0.816681891
533,0.816681891
534,0.816681891
535,0.816681891
536,0.816681891
537,0.816681891
538,0.816681891
539,0.816681891
540,0.816681891
541,0.816681891
542,0.816681891
543,0.816681891
544,0.816681891
545,0.816681891
546,0.816681891
547,0.816681891
548,0.816681891
549,0.816681891
550,0.816681891
551,0.816681891
552,0.816681891
553,0.816681891
554,0.816681891
555,0.816681891
556,0.816681891
557,0.816681891
558,0.816681891
559,0.816681891
560,0.816681891
561,0.816681891
562,0.816681891
563,0.816681891
564,0.816681891
565,0.816681891
566,0.816681891
567,0.816681891
568,0.816681891
569,0.816681891
570,0.816681891
571,0.816681891
572,0.816681891
573,0.816681891
574,0.816681891
575,0.816681891
576,0.816681891
577,0.816681891
578,0.816681891
579,0.816681891
580,0.816681891
581,0.816681891
582,0.816681891
583,0.816681891
584,0.816681891
585,0.816681891
586,0.816681891
587,0.816681891
588,0.816681891
589,0.816681891
590,0.816681891
591,0.816681891
592,0.816681891
593,0.816681891
594,0.816681891
595,0.816681891
596,0.816681891
597,0.816681891
598,0.816681891
599,0.816681891
600,0.816681891
601,0.816681891
602,0.816681891
603,0.816681891
604,0.816681891
605,0.816681891
606,0.816681891
607,0.816681891
608,0.816681891
609,0.816681891
610,0.816681891
611,0.816681891
612,0.816681891
613,0.816681891
614,0.816681891
615,0.816681891
616,0.816681891
617,0.816681891
618,0.816681891
619,0.816681891
620,0.816681891
621,0.816681891
622,0.816681891
623,0.816681891
624,0.816681891
625,0.816681891
626,0.816681891
627,0.816681891
628,0.816681891
629,0.816681891
630,0.816681891
631,0.816681891
632,0.816681891
633,0.816681891
634,0.816681891
635,0.816681891
636,0.816681891
637,0.816681891
638,0.816681891
639,0.816681891
640,0.816681891
641,0.816681891
642,0.816681891
643,0.816681891
644,0.816681891
645,0.816681891
646,0.816681891
647,0.816681891
648,0.816681891
649,0.816681891
650,0.816681891
651,0.816681891
652,0.816681891
653,0.816681891
654,0.816681891
655,0.816681891
656,0.816681891
657,0.816681891
658,0.816681891
659,0.816681891
660,0.816681891
661,0.816681891
662,0.816681891
663,0.816681891
664,0.816681891
665,0.816681891
666,0.816681891
667,0.816681891
668,0.816681891
669,0.816681891
670,0.816681891
671,0.816681891
672,0.816681891
673,0.816681891
674,0.816681891
675,0.816681891
676,0.816681891
677,0.816681891
678,0.816681891
679,0.816681891
680,0.816681891
681,0.816681891
682,0.816681891
683,0.816681891
684,0.816681891
685,0.816681891
686,0.816681891
687,0.816681891
688,0.816681891
689,0.816681891
690,0.816681891
691,0.816681891
692,0.816681891
693,0.816681891
694,0.816681891
695,0.816681891
696,0.816681891
697,0.816681891
698,0.816681891
699,0.816681891
700,0.816681891
701,0.816681891
702,0.816681891
703,0.816681891
704,0.816681891
705,0.816681891
706,0.816681891
707,0.816681891
708,0.816681891
709,0.816681891
710,0.816681891
711,0.816681891
712,0.816681891
713,0.816681891
714,0.816681891
715,0.816681891
716,0.816681891
717,0.816681891
718,0.816681891
719,0.816681891
720,0.816681891
721,0.816681891
722,0.816681891
723,0.816681891
724,0.816681891
725,0.816681891
726,0.816681891
727,0.816681891
728,0.816681891
729,0.816681891
730,0.816681891
731,0.816681891
732,0.816681891
733,0.816681891
734,0.816681891
735,0.816681891
736,0.816681891
737,0.816681891
738,0.816681891
739,0.816681891
740,0.816681891
741,0.816681891
742,0.816681891
743,0.816681891
744,0.816681891
745,0.816681891
746,0.816681891
747,0.816681891
748,0.816681891
749,0.816681891
750,0.816681891
751,0.816681891
752,0.816681891
753,0.816681891
754,0.816681891
755,0.816681891
756,0.816681891
757,0.816681891
758,0.816681891
759,0.816681891
760,0.816681891
761,0.816681891
762,0.816681891
763,0.816681891
764,0.816681891
765,0.816681891
766,0.816681891
767,0.816681891
768,0.816681891
769,0.816681891
770,0.816681891
771,0.816681891
772,0.816681891
773,0.816681891
774,0.816681891
775,0.816681891
776,0.816681891
777,0.816681891
778,0.816681891
779,0.816681891
780,0.816681891
781,0.816681891
782,0.816681891
783,0.816681891
784,0.816681891
785,0.816681891
786,0.816681891
787,0.816681891
788,0.816681891
789,0.816681891
790,0.816681891
791,0.816681891
792,0.816681891
793,0.816681891
794,0.816681891
795,0.816681891
796,0.816681891
797,0.816681891
798,0.816681891
799,0.816681891
800,0.816681891
801,0.816681891
802,0.816681891
803,0.816681891
804,0.816681891
805,0.816681891
806,0.816681891
807,0.816681891
808,0.816681891
809,0.816681891
810,0.816681891
811,0.816681891
812,0.816681891
813,0.816681891
814,0.816681891
815,0.816681891
816,0.816681891
817,0.816681891
818,0.816681891
819,0.816681891
820,0.816681891
821,0.816681891
822,0.816681891
823,0.816681891
824,0.816681891
825,0.816681891
826,0.816681891
827,0.816681891
828,0.816681891
829,0.816681891
830,0.816681891
831,0.816681891
832,0.816681891
833,0.816681891
834,0.816681891
835,0.816681891
836,0.816681891
837,0.816681891
838,0.816681891
839,0.816681891
840,0.816681891
841,0.816681891
842,0.816681891
843,0.816681891
844,0.816681891
845,0.816681891
846,0.816681891
847,0.816681891
848,0.816681891
849,0.816681891
850,0.816681891
851,0.816681891
852,0.816681891
853,0.816681891
854,0.816681891
855,0.816681891
856,0.816681891
857,0.816681891
858,0.816681891
859,0.816681891
860,0.816681891
861,0.816681891
862,0.816681891
863,0.816681891
864,0.816681891
865,0.816681891
866,0.816681891
867,0.816681891
868,0.816681891
869,0.816681891
870,0.816681891
871,0.816681891
872,0.816681891
873,0.816681891
874,0.816681891
875,0.816681891
876,0.816681891
877,0.816681891
878,0.816681891
879,0.816681891
880,0.816681891
881,0.816681891
882,0.816681891
883,0.816681891
884,0.816681891
885,0.816681891
886,0.816681891
887,0.816681891
888,0.816681891
889,0.816681891
890,0.816681891
891,0.816681891
892,0.816681891
893,0.816681891
894,0.816681891
895,0.816681891
896,0.816681891
897,0.816681891
898,0.816681891
899,0.816681891
900,0.816681891
901,0.816681891
902,0.816681891
903,0.816681891
904,0.816681891
905,0.816681891
906,0.816681891
907,0.816681891
908,0.816681891
909,0.816681891
910,0.816681891
911,0.816681891
912,0.816681891
913,0.816681891
914,0.816681891
915,0.816681891
916,0.816681891
917,0.816681891
918,0.816681891
919,0.816681891
920,0.816681891
921,0.816681891
922,0.816681891
923,0.816681891
924,0.816681891
925,0.816681891
926,0.816681891
927,0.816681891
928,0.816681891
929,0.816681891
930,0.816681891
931,0.816681891
932,0.816681891
933,0.816681891
934,0.816681891
935,0.816681891
936,0.816681891
937,0.816681891
938,0.816681891
939,0.816681891
940,0.816681891
941,0.816681891
942,0.816681891
943,0.816681891
944,0.816681891
945,0.816681891
946,0.816681891
947,0.816681891
948,0.816681891
949,0.816681891
950,0.816681891
951,0.816681891
952,0.816681891
953,0.816681891
954,0.816681891
955,0.816681891
956,0.816681891
957,0.816681891
958,0.816681891
959,0.816681891
960,0.816681891
961,0.816681891
962,0.816681891
963,0.816681891
964,0.816681891
965,0.816681891
966,0.816681891
967,0.816681891
968,0.816681891
969,0.816681891
970,0.816681891
971,0.816681891
972,0.816681891
973,0.816681891
974,0.816681891
975,0.816681891
976,0.816681891
977,0.816681891
978,0.816681891
979,0.816681891
980,0.816681891
981,0.816681891
982,0.816681891
983,0.816681891
984,0.816681891
985,0.816681891
986,0.816681891
987,0.816681891
988,0.816681891
989,0.816681891
990,0.816681891
991,0.816681891
992,0.816681891
993,0.816681891
994,0.816681891
995,0.816681891
996,0.816681891
997,0.816681891
998,0.816681891
999,0.816681891
1000,0.816681891
