dose,RR,lb,ub
0,1,1,1
0.13015015015015016,0.9937727896133227,0.992701535425864,0.9948451998235064
0.2603003003003003,0.987586158210957,0.985458465512051,0.9897184447881231
0.39045045045045046,0.9814416203111848,0.978272466481245,0.9846210407451044
0.5206006006006006,0.9753406478452626,0.9711451565022762,0.9795542643341052
0.6507507507507508,0.9692846709161524,0.9640780968848789,0.974519363429975
0.7809009009009009,0.9632750785777712,0.957072793298405,0.9695175576051531
0.9110510510510511,0.9573132196335346,0.9501306970125303,0.9645500386069916
1.0412012012012013,0.951400403453005,0.9432532061580576,0.9596179708493519
1.1713513513513514,0.9455379008054934,0.9364416670059975,0.9547224919178368
1.3015015015015017,0.9397269447095064,0.9296973752631742,0.9498647130880451
1.4316516516516518,0.9339687312969692,0.9230215773826834,0.9450457198562511
1.5618018018018018,0.9282644206911965,0.9164154718875948,0.9402665724819339
1.6919519519519521,0.9226151378976218,0.9098802107063689,0.9355283065416047
1.8221021021021022,0.9170219737063426,0.9034169005185304,0.9308319334933975
1.9522522522522525,0.9114859856055749,0.8970266041092088,0.9261784412519157
2.0824024024024026,0.9060081987051554,0.8907103417312336,0.9215687947728433
2.2125525525525527,0.9005896066692713,0.8844690924735416,0.9170039366468595
2.3427027027027028,0.8952311726576389,0.878303795634721,0.912484787702412
2.4728528528528533,0.8899338302743943,0.8722153521005959,0.9080122476169306
2.6030030030030034,0.8846984845240045,0.8662046257248145,0.903587195536086
2.7331531531531534,0.8795260127735419,0.8602724447114839,0.8992104907007238
2.8633033033033035,0.8744172657207178,0.8544196029989526,0.8948829730811239
2.9934534534534536,0.8693730683671005,0.8486468616439189,0.8906054640182655
3.1236036036036037,0.8643942209959973,0.8429549502051031,0.8863787668717978
3.253753753753754,0.8594815001545099,0.8373445681257906,0.8822036676744451
3.3839039039039043,0.8546356596393225,0.8318163861146182,0.8780809357925968
3.5140540540540544,0.84985743148582,0.826371047524037,0.874011324592863
3.6442042042042044,0.8451475269601727,0.8210091697259524,0.8699955721143968
3.7743543543543545,0.8405066375540693,0.8157313454840995,0.8660344017468162
3.904504504504505,0.8359354359818163,0.810538144322776,0.8621285229135803
4.034654654654655,0.8314345771795657,0.8054301138916135,0.8582786317607055
4.164804804804805,0.8270046993064686,0.8004077813261247,0.8544854118507298
4.294954954954956,0.8226464247475993,0.7954716546038281,0.8507495348618683
4.425105105105105,0.8183603611185267,0.7906222238957991,0.8470716612923229
4.555255255255256,0.8141471022714546,0.7858599629135596,0.8434524411697439
4.6854054054054055,0.81000722930289,0.7811853302512693,0.8398925147658693
4.815555555555556,0.8059413115628381,0.7765987707232337,0.8363925133163944
4.9457057057057066,0.8019499076655614,0.7721007166968004,0.8329530597461595
5.075855855855856,0.7980335665019811,0.7676915894207613,0.8295747693997712
5.206006006006007,0.7941928282538347,0.7633718003494306,0.826258250777806
5.336156156156156,0.7904281338274456,0.7591416484484075,0.8230040283297657
5.466306306306307,0.786738841240525,0.7550002046078368,0.8198117040749465
5.596456456456457,0.7831236233150105,0.7509457678066545,0.8166802926199219
5.726606606606607,0.77958116918678,0.7469766630165414,0.813608817304067
5.8567567567567576,0.776110195795864,0.7430912539989042,0.8105963201380684
5.986906906906907,0.7727094471458392,0.7392879422075028,0.8076418613369465
6.117057057057058,0.7693776935834525,0.7355651657226081,0.8047445188656781
6.247207207207207,0.7661137310978526,0.731921398215793,0.8019033879969002
6.377357357357358,0.7629163806388202,0.7283551479444667,0.7991175808802202
6.507507507507508,0.7597844874534162,0.7248649567752734,0.7963862261226948
6.637657657657658,0.7567169204404792,0.7214493992354892,0.7937084683800711
6.7678078078078086,0.7537125715224275,0.7181070815915661,0.791083467958412
6.897957957957958,0.7507703550338374,0.7148366409539963,0.7885104004257506
7.028108108108109,0.7478892071262857,0.7116367444076811,0.7859884562334397
7.158258258258259,0.745068085188966,0.7085060881670199,0.7835168403468811
7.288408408408409,0.742305967284597,0.7054433967549477,0.7810947718853342
7.418558558558559,0.7396018516001648,0.7024474222051775,0.7787214837705192
7.548708708708709,0.7369547559120521,0.6995169432869234,0.7763962223837457
7.6788588588588595,0.7343637170651207,0.6966507647514003,0.7741182472313027
7.80900900900901,0.731827790465334,0.6938477165994245,0.7718868306178657
7.93915915915916,0.7293460495855116,0.6911066533694519,0.7697012573276791
8.06930930930931,0.726917585483829,0.6884264534454191,0.7675608243132888
8.19945945945946,0.7245415063346822,0.6858060183837693,0.7654648403915995
8.32960960960961,0.7222169369715561,0.6832442722590678,0.7634126259470507
8.459759759759761,0.7199430184415379,0.6807401610276268,0.7614035126417014
8.589909909909911,0.717718907571139,0.6782926519085855,0.7594368431320303
8.72006006006006,0.7155437765430934,0.6759007327819041,0.7575119707922594
8.85021021021021,0.7134168124838107,0.6735634116027506,0.7556282594440175
8.980360360360361,0.7113372170611785,0.6712797158317778,0.7537850830921657
9.110510510510512,0.7093042060924122,0.6690486918808038,0.7519818256666145
9.240660660660662,0.7073170091616647,0.6668694045734257,0.7502178807699631
9.370810810810811,0.7053748692471147,0.6647409366201135,0.7484926514308032
9.500960960960962,0.7034770423572638,0.6626623881073452,0.7468055498625306
9.631111111111112,0.7016227971761808,0.6606328760003609,0.7451559972275119
9.761261261261263,0.6998114147174392,0.6586515336591255,0.7435434234064635
9.891411411411413,0.698042187986503,0.6567175103671079,0.7419672667728964
10.021561561561562,0.6963144216513238,0.6548299708724934,0.7404269739724955
10.151711711711712,0.6946274317209209,0.6529880949414634,0.7389219997072942
10.281861861861863,0.6929805452317196,0.6511910769231866,0.7374518065245198
10.412012012012013,0.691373099941438,0.6494381253261795,0.7360158646099817
10.542162162162164,0.6898044440303094,0.6477284624057056,0.7346136515858822
10.672312312312313,0.6882739358094436,0.6460613237618941,0.7332446523129313
10.802462462462463,0.6867809434361312,0.6444359579482694,0.7319083586966518
10.932612612612614,0.6853248446359027,0.6428516260903976,0.7306042694977632
11.062762762762764,0.6839050264311635,0.6413076015143595,0.7293318901465378
11.192912912912915,0.6825208848762243,0.639803169384775,0.7280907325610216
11.323063063063064,0.6811718247985623,0.638337626352114,0.7268803149690233
11.453213213213214,0.6798572595461465,0.636910280209035,0.7257001617337683
11.583363363363365,0.6785766107406668,0.6355204495555026,0.7245498031831248
11.713513513513515,0.6773293080365175,0.6341674634724471,0.7234287754423089
11.843663663663666,0.6761147888853829,0.632850661203734,0.7223366202699777
11.973813813813814,0.6749324983062844,0.6315693918462212,0.7212728848976251
12.103963963963965,0.6737818886609482,0.6303230140476908,0.7202371218721927
12.234114114114115,0.6726624194343617,0.6291108957124468,0.7192288889018156
12.364264264264266,0.6715735570203882,0.6279324137143835,0.7182477487046242
12.494414414414415,0.6705147745123147,0.6267869536173275,0.71729326886052025
12.624564564564565,0.6694855514982124,0.6256739094024744,0.716365021665858
12.754714714714716,0.6684853738609942,0.6245926832027375,0.7154625839909529
12.884864864864866,0.6675137335830541,0.623542685043841,0.7145855371403488
13.015015015015017,0.6665701285553819,0.6225233325919889,0.7137334667157762
13.145165165165166,0.6656540623910489,0.6215340509079542,0.7129059624817342
13.275315315315316,0.6647650442429591,0.6205742722074338,0.7121026182336305
13.405465465465467,0.6639025886257746,0.6196434356275212,0.7113230316684209
13.535615615615617,0.6630662152419147,0.6187409869991579,0.7105668042576844
13.665765765765768,0.6622554488115415,0.6178663786254239,0.7098335411230765
13.795915915915916,0.6614698189064434,0.617019069065539,0.7091228509141064
13.926066066066067,0.6607088597877318,0.6161985229244475,0.708434345688181
14.056216216216217,0.6599721102472687,0.6154042106478643,0.7077676407928628
14.186366366366368,0.659259113452749,0.6146356083226682,0.7071223547502943
14.316516516516518,0.6585694167963597,0.6138921974825261,0.7064981091437356
14.446666666666667,0.6579025717469443,0.6131734649186467,0.7058945285061708
14.576816816816818,0.6572581337056015,0.6124789024955508,0.7053112402109366
14.706966966966968,0.6566356618646525,0.6118080069717687,0.7047478743643284
14.837117117117119,0.6560347190699107,0.611160279825361,0.7042040637001444
14.96726726726727,0.6554548716861913,0.6105352270841746,0.7036794434761249
15.097417417417418,0.6548956894660017,0.6099323591607442,0.7031736513722479
15.227567567567569,0.6543567454213558,0.6093511906917545,0.7026863273908477
15.357717717717719,0.6538376156986551,0.6087912403819817,0.702217113758516
15.48786786786787,0.6533378794565847,0.6082520308526334,0.7017656548297556
15.61801801801802,0.6528571187469754,0.6077330884940148,0.7013315969923528
15.748168168168169,0.6523949183985776,0.6072339433224454,0.70091458857444
15.87831831831832,0.6519508659037077,0.6067541288413578,0.7005142797532168
16.00846846846847,0.6515245513077167,0.60629318190651,0.7001303224653064
16.13861861861862,0.6511155671012391,0.6058506425952471,0.6997623703187175
16.26876876876877,0.6507235081151856,0.6054260540797507,0.6994100785063928
16.39891891891892,0.6503479714184345,0.6050189625042137,0.6990731037213187
16.52906906906907,0.6499885562181879,0.6046289168658837,0.6987511040731754
16.65921921921922,0.6496448637629575,0.604255468899918,0.6984437390065115
16.78936936936937,0.6493164972481439,0.603898172967998,0.6981506692204236
16.919519519519522,0.6490030617241802,0.6035565859506475,0.6978715565897274
17.049669669669672,0.6487041640072052,0.6032302671432075,0.6976060640876042
17.179819819819823,0.6484194125922408,0.6029187781554142,0.6973538557097119
17.30996996996997,0.648148417568844,0.6026216828145381,0.6971145963997528
17.44012012012012,0.6478907905392071,0.6023385470720314,0.6968879519764837
17.57027027027027,0.6476461445386823,0.6020689389136443,0.6966735890621679
17.70042042042042,0.6474140939587054,0.6018124282729631,0.6964711750124583
17.830570570570572,0.6471942544720991,0.6015685869483276,0.6962803778477128
17.960720720720722,0.6469862429607309,0.6013369885230857,0.6961008661857359
18.090870870870873,0.6467896774455103,0.6011172082891473,0.6959323091759508
18.221021021021024,0.6466041770187029,0.6009088231737912,0.6957743764349996
18.351171171171174,0.6464293617785458,0.6007114116696917,0.695626737983778
18.481321321321325,0.6462648527661482,0.6005245537681217,0.6954890641859084
18.61147147147147,0.6461102719046602,0.6003478308952962,0.6953610256876581
18.741621621621622,0.645965241940696,0.6001808258518155,0.6952422933593118
18.871771771771773,0.645829386388001,0.6000231227551761,0.6951325382380089
19.001921921921923,0.6457023294733442,0.5998743069853036,0.695031431472056
19.132072072072074,0.6455836960846306,0.5997339651330793,0.6949386442667306
19.262222222222224,0.6454731117212197,0.5996016849518166,0.6948538478315892
19.392372372372375,0.6453702024464398,0.599477055311656,0.694776713329299
19.522522522522525,0.6452745948422921,0.5993596661568366,0.6947069118260101
19.652672672672676,0.6451859159663316,0.5992491084658125,0.6946441142432879
19.782822822822826,0.6451037933107219,0.5991449742141745,0.6945879913116314
19.912972972972973,0.6450278547634541,0.5990468563403397,0.6945382135255956
20.043123123123124,0.6449577285717233,0.5989543487139743,0.6944944511005462
20.173273273273274,0.6448930433074604,0.5988670461071126,0.6944563739310728
20.303423423423425,0.6448334278350085,0.5987845441679305,0.6944236515510865
20.433573573573575,0.6447785112809445,0.5987064393971422,0.6943959530956325
20.563723723723726,0.6447279230060402,0.59863232912698,0.6943729472644486
20.693873873873876,0.6446812925793565,0.5985618115027151,0.6943543022872993
20.824024024024027,0.6446382497544725,0.5984944854666906,0.6943396858911203
20.954174174174177,0.6445984244478427,0.5984299507448174,0.6943287652690058
21.084324324324328,0.6445614467192801,0.5983678078355024,0.6943212070510745
21.214474474474475,0.6445269467545692,0.5983076580009694,0.6943166772772517
21.344624624624625,0.6444945548501952,0.5982491032609275,0.6943148413719986
21.474774774774776,0.6444639014002007,0.598191746388555,0.6943153641210353
21.604924924924926,0.6444346168851601,0.5981351909087563,0.6943179096500866
21.735075075075077,0.6444063318632738,0.5980790410986504,0.694322141405695
21.865225225225227,0.6443786769635805,0.5980229019902557,0.6943277221381401
21.995375375375378,0.6443512844905207,0.5979663810960996,0.694334315356533
22.12552552552553,0.644323914577245,0.5979092232543668,0.6943417006289054
22.25567567567568,0.6442965458265528,0.5978514071817698,0.6943498567994765
22.38582582582583,0.6442691782383946,0.597792934512164,0.6943587822206522
22.515975975975977,0.6442418118127206,0.5977338069061574,0.694368475218097
22.646126126126127,0.6442144465494823,0.5976740260507724,0.6943789340910737
22.776276276276278,0.6441870824486302,0.597613593659101,0.6943901571127833
22.906426426426428,0.6441597195101145,0.5975525114699608,0.6944021425307132
23.03657657657658,0.6441323577338861,0.5974907812475446,0.6944148885669859
23.16672672672673,0.6441049971198956,0.5974284047810674,0.6944283934187122
23.29687687687688,0.6440776376680933,0.59736538388441,0.6944426552583475
23.42702702702703,0.6440502793784304,0.5973017203957611,0.694457672234051
23.55717717717718,0.6440229222508569,0.5972374161772536,0.6944734424700467
23.68732732732733,0.6439955662853241,0.5971724731146012,0.6944899640669904
23.81747747747748,0.6439682114817824,0.5971068931167305,0.6945072351023344
23.94762762762763,0.6439408578401818,0.5970406781154104,0.6945252536306981
24.07777777777778,0.6439135053604739,0.5969738300648825,0.6945440176842412
24.20792792792793,0.643886154042609,0.5969063509414853,0.6945635252730366
24.33807807807808,0.6438588038865375,0.5968382427432783,0.6945837743854452
24.46822822822823,0.6438314548922104,0.5967695074896652,0.6946047629884959
24.59837837837838,0.6438041070595781,0.5967001472210137,0.6946264890282635
24.728528528528532,0.6437767603885914,0.5966301639982754,0.6946489504302499
24.858678678678682,0.643749414879201,0.5965595599026032,0.6946721450997658
24.98882882882883,0.6437220705313577,0.5964883370349685,0.694696070922315
25.11897897897898,0.6436947273450113,0.5964164975157754,0.6947207257639767
25.24912912912913,0.6436673853201135,0.5963440434844783,0.6947461074717937
25.37927927927928,0.6436400444566145,0.5962709770991937,0.6947722138741554
25.50942942942943,0.643612704754465,0.5961973005363139,0.6947990427811861
25.639579579579582,0.6435853662136157,0.5961230159901215,0.694826591985131
25.769729729729733,0.6435580288340175,0.5960481256724005,0.6948548592607439
25.899879879879883,0.6435306926156206,0.5959726318120498,0.6948838423656741
26.030030030030034,0.6435033575583757,0.5958965366546957,0.6949135390408544
26.160180180180184,0.6434760236622341,0.5958198424623049,0.6949439470108887
26.29033033033033,0.6434486909271463,0.5957425515127969,0.6949750639844379
26.42048048048048,0.6434213593530623,0.5956646660996563,0.6950068876546065
26.550630630630632,0.6433940289399332,0.5955861885315495,0.6950394156993307
26.680780780780783,0.6433666996877101,0.595507121131937,0.6950726457817626
26.810930930930933,0.6433393715963431,0.5954274662386886,0.6951065755506541
26.941081081081084,0.6433120446657828,0.5953472262037,0.6951412026407426
27.071231231231234,0.6432847188959809,0.5952664033925108,0.6951765246731334
27.201381381381385,0.643257394286887,0.5951850001839204,0.6952125392556797
27.331531531531535,0.6432300708384523,0.5951030189696102,0.6952492439833664
27.461681681681686,0.6432027485506274,0.5950204621537618,0.6952866364386863
27.591831831831833,0.6431754274233626,0.5949373321526812,0.6953247141920189
27.721981981981983,0.6431481074566098,0.5948536313944225,0.6953634748020087
27.852132132132134,0.6431207886503182,0.5947693623184112,0.6954029158159347
27.982282282282284,0.6430934710044393,0.5946845273750744,0.6954430347700886
28.112432432432435,0.6430661545189245,0.5945991290254693,0.6954838291901428
28.242582582582585,0.6430388391937228,0.5945131697409111,0.695525296591518
28.372732732732736,0.6430115250287863,0.5944266520026112,0.6955674344797533
28.502882882882886,0.6429842120240652,0.5943395783013096,0.6956102403508687
28.633033033033037,0.6429569001795099,0.5942519511369122,0.6956537116917278
28.763183183183187,0.6429295894950723,0.5941637730181335,0.6956978459803989
28.893333333333334,0.6429022799707015,0.5940750464621346,0.6957426406865093
29.023483483483485,0.6428749716063494,0.5939857739941732,0.6957880932716056
29.153633633633635,0.6428476644019668,0.5938959581472475,0.6958342011895019
29.283783783783786,0.6428203583575033,0.5938056014617463,0.6958809618866301
29.413933933933937,0.6427930534729107,0.5937147064851057,0.6959283728023902
29.544084084084087,0.6427657497481395,0.59362327577146,0.6959764313694907
29.674234234234238,0.6427384471831398,0.5935313118813033,0.6960251350142916
29.804384384384388,0.6427111457778633,0.5934388173811509,0.696074481157144
29.93453453453454,0.6426838455322598,0.5933457948432023,0.6961244672127227
30.06468468468469,0.6426565464462812,0.593252246845011,0.6961750905903616
30.194834834834836,0.6426292485198771,0.5931581759691531,0.6962263486943799
30.324984984984987,0.6426019517529985,0.593063584802903,0.6962782389244104
30.455135135135137,0.6425746561455967,0.5929684759379105,0.6963307586757221
30.585285285285288,0.6425473616976226,0.5928728519698807,0.6963839053395381
30.715435435435438,0.6425200684090256,0.5927767154982571,0.6964376763033514
30.84558558558559,0.6424927762797574,0.5926800691259113,0.6964920689512408
30.97573573573574,0.6424654853097688,0.5925829154588323,0.6965470806641774
31.10588588588589,0.6424381954990109,0.5924852571058213,0.6966027088203309
31.23603603603604,0.6424109068474337,0.5923870966781872,0.6966589507953713
31.36618618618619,0.6423836193549879,0.5922884367894511,0.6967158039627688
31.496336336336338,0.6423563330216239,0.5921892800550491,0.6967732656940878
31.62648648648649,0.6423290478472939,0.5920896290920442,0.6968313333592809
31.75663663663664,0.6423017638319481,0.5919894865188327,0.6968900043269727
31.88678678678679,0.6422744809755375,0.5918888549548652,0.6969492759647463
32.01693693693694,0.6422471992780135,0.5917877370203644,0.6970091456394244
32.14708708708709,0.642219918739324,0.5916861353360442,0.6970696107173405
32.27723723723724,0.6421926393594223,0.5915840525228468,0.6971306685646224
32.40738738738739,0.6421653611382582,0.5914814912016648,0.6971923165474511
32.53753753753754,0.6421380840757831,0.5913784539930792,0.697254552032332
32.66768768768769,0.6421108081719471,0.5912749435170965,0.6973173723863529
32.79783783783784,0.642083533426701,0.5911709623928927,0.697380774977445
32.92798798798799,0.6420562598399968,0.5910665132385595,0.6974447571746353
33.05813813813814,0.6420289874117847,0.5909615986708517,0.6975093163482955
33.18828828828829,0.6420017161420144,0.5908562213049422,0.6975744498703886
33.31843843843844,0.6419744460306382,0.5907503837541822,0.6976401551147148
33.44858858858859,0.6419471770776055,0.590644088629858,0.6977064294571432
33.57873873873874,0.6419199092828685,0.5905373385409615,0.6977732702758545
33.70888888888889,0.6418926426463779,0.5904301360939559,0.6978406749515652
33.839039039039044,0.641865377168083,0.5903224838925476,0.6979086408677557
33.969189189189194,0.6418381128479352,0.5902143845374678,0.697977165410897
34.099339339339345,0.6418108496858854,0.59010584062625,0.6980462459706666
34.229489489489495,0.6417835876818854,0.5899968547530168,0.6981158799401654
34.359639639639646,0.6417563268358849,0.5898874295082643,0.6981860647161274
34.489789789789796,0.6417290671478352,0.589777567478659,0.6982567976991295
