dose,RR,lb,ub
0,1,1,1
0.33353353353353354,0.9966994720104453,0.9943661881319302,0.9990382309480711
0.6670670670670671,0.9934116480899008,0.9887674589873346,0.9980776507060736
1.0006006006006007,0.9901382789843167,0.9832069009946546,0.9971185215626905
1.3341341341341342,0.9868810919205966,0.9776875288076189,0.9961611055611937
1.6676676676676676,0.9836417908826943,0.9722122842625086,0.995205664887139
2.0012012012012015,0.9804220569173848,0.9667840374317501,0.9942524622599319
2.334734734734735,0.9772235484689953,0.96140558776777,0.9933017613301093
2.6682682682682684,0.9740479017423941,0.9560796653311373,0.9923538270842266
3.001801801801802,0.9708967310935572,0.9508089320971116,0.9914089262593064
3.335335335335335,0.9677716294470471,0.9455959833347899,0.9904673277688768
3.668868868868869,0.964674168739761,0.9404433490531255,0.9895293031427239
4.002402402402403,0.9616059003903255,0.9353534955081437,0.9885951269825961
4.335935935935936,0.9585683557935378,0.9303288267657335,0.9876650774362209
4.66946946946947,0.9555630468392773,0.9253716863144236,0.9867394366921539
5.003003003003003,0.9525914664553333,0.9204843587225727,0.9858184914981434
5.336536536536537,0.9496550891736266,0.9156690713343938,0.9849025337058954
5.670070070070071,0.946755371719321,0.9109279959992169,0.9839918608453441
6.003603603603604,0.9438937536223561,0.9062632508283406,0.9830867767317834
6.3371371371371374,0.9410716578509565,0.9016769019737461,0.9821875921095004
6.67067067067067,0.9382904914667044,0.8971709654228432,0.9812946253358699
7.004204204204204,0.9355516463007925,0.8927474088032706,0.980408203110224
7.337737737737738,0.9328564996511057,0.8884081531915883,0.9795286612522197
7.671271271271271,0.9302064149998122,0.8841550749194733,0.978656345534872
8.004804804804806,0.9276027427511776,0.8799900073707477,0.9777916125779293
8.338338338338339,0.9250468209893519,0.875914742762227,0.9769348308078366
8.671871871871872,0.9225399762559088,0.8719310339009759,0.9760863814911638
9.005405405405405,0.9200835243469597,0.8680405959100789,0.9752466598490952
9.33893893893894,0.9176787501035502,0.8642450715554156,0.9744160726031011
9.672472472472473,0.9153260557215928,0.8605445629455482,0.9735948890491827
10.006006006006006,0.913024676991966,0.856937162981376,0.9727831827202493
10.33953953953954,0.9107737808745686,0.8534208644411699,0.9719810172109268
10.673073073073073,0.9085725473917461,0.8499937013843765,0.9711884600196874
11.006606606606606,0.9064201692793261,0.8466537479417269,0.9704055822982203
11.340140140140141,0.9043158516458368,0.8433991171024602,0.9696324586483843
11.673673673673674,0.9022588116396906,0.8402279595078993,0.9688691669558912
12.007207207207207,0.9002482781241236,0.8371384622581554,0.9681157882523921
12.340740740740742,0.8982834913596887,0.8341288477369344,0.9673724065995069
12.674274274274275,0.8963637026941045,0.8311973724580843,0.966639108989727
13.007807807807808,0.8944881742592706,0.8283423259365271,0.9659159852601723
13.34134134134134,0.8926561786752647,0.8255620295854842,0.9652031280159747
13.674874874874876,0.8908669987611422,0.8228548356413422,0.9645006325606751
14.008408408408409,0.8891199272523682,0.8202191261170931,0.9638085968314778
14.341941941941942,0.8874142665247119,0.8176533117849651,0.9631271213375803
14.675475475475476,0.8857493283244436,0.8151558311886278,0.9624563091000657
15.00900900900901,0.8841244335046771,0.8127251496851778,0.9617962655920773
15.342542542542542,0.882538911767706,0.8103597585169804,0.9611470986781561
15.676076076076077,0.8809921014131886,0.8080581739133461,0.96050891855177
16.009609609609612,0.8794833490920376,0.8058189362219558,0.9598818376701631
16.343143143143145,0.8780120095658791,0.8036406090698921,0.9592659706857449
16.676676676676678,0.8765774454719482,0.8015217785541091,0.9586614343733068
17.01021021021021,0.8751790270932923,0.7994610524611481,0.9580683475524087
17.343743743743744,0.8738161321341593,0.7974570595158941,0.9574868310043271
17.677277277277277,0.8724881455004482,0.7955084486591649,0.9569170073829878
18.01081081081081,0.8711944590851104,0.793613888353925,0.9563590011193439
18.344344344344346,0.8699344715583859,0.7917720659199152,0.955812938318683
18.67787787787788,0.868707588162768,0.7899816868965017,0.9552789466503712
19.011411411411412,0.8675132205125923,0.7882414744335463,0.9547571552295638
19.344944944944945,0.8663507863981471,0.7865501687101155,0.9542476944904319
19.67847847847848,0.8652197095942107,0.7849065263808458,0.9537506960504725
20.01201201201201,0.8641194196729177,0.7833093200497925,0.9532662925654894
20.345545545545548,0.8630493518208674,0.7817573377715924,0.9527946175748526
20.67907907907908,0.8620089466603827,0.7802493825797746,0.9523358053366614
21.012612612612614,0.8609976500748381,0.7787842720420521,0.9518899906524617
21.346146146146147,0.8600149130379727,0.7773608378424277,0.9514573086811908
21.67967967967968,0.8590601914471117,0.7759779253899398,0.9510378947420451
22.013213213213213,0.8581329459602173,0.7746343934538695,0.9506318841060009
22.346746746746746,0.8572326418367003,0.7733291138252147,0.9502394117757428
22.680280280280282,0.8563587487819175,0.7720609710042271,0.9498606122537908
23.013813813813815,0.8555107407952895,0.7708288619137845,0.9494956192986536
23.34734734734735,0.8546880960219734,0.7696316956383552,0.9491445656688745
23.68088088088088,0.8538902966080258,0.7684683931882776,0.9488075828548788
24.014414414414414,0.8531168285589987,0.7673378872890573,0.9484848007985791
24.347947947947947,0.8523671816019064,0.7662391221953403,0.9481763476007431
24.681481481481484,0.8516408490505097,0.7651710535291943,0.9478823492161812
25.015015015015017,0.850937327673864,0.7641326481422802,0.9476029291368687
25.34854854854855,0.8502561175680776,0.7631228840014547,0.9473382080631754
25.682082082082083,0.8495967220312325,0.7621407500972978,0.9470883035634373
26.015615615615616,0.8489586474414191,0.7611852463750044,0.9468533297221708
26.34914914914915,0.8483414031378403,0.7602553836870282,0.9466333967772984
26.68268268268268,0.8477445013049391,0.7593501837668035,0.946428610746822
27.01621621621622,0.8471674568595106,0.7584686792228192,0.9462390730454546
27.34974974974975,0.8466097873407562,0.7576099135522484,0.9460648800917917
27.683283283283284,0.8460710128032427,0.7567729411732821,0.9459061229066807
28.016816816816817,0.8455506557127284,0.7559568274752474,0.9457628867035202
28.35035035035035,0.8450482408448238,0.7551606488855284,0.9456352504712937
28.683883883883883,0.84456329518645,0.754383492952242,0.9455232865512224
29.01741741741742,0.8440953478400652,0.753624458441561,0.9454270602079862
29.350950950950953,0.843643929930628,0.7528826554485135,0.9453466291965427
29.684484484484486,0.8432085745152696,0.7521572055200296,0.9452820433256346
30.01801801801802,0.8427888164956452,0.7514472417889474,0.9452333440191456
30.35155155155155,0.8423841925329401,0.750751909117643,0.9452005638765245
30.685085085085085,0.8419942409655052,0.7500703642498974,0.9451837262335542
31.01861861861862,0.8416185017290981,0.7494017759695699,0.9451828447247953
31.352152152152154,0.8412565162797074,0.7487453252646157,0.9451979228490749
31.685685685685687,0.8409078275189382,0.7481002054949438,0.9452289535394327
32.019219219219224,0.84057197972194,0.7474656225626042,0.9452759187389695
32.35275275275276,0.8402485184678579,0.7468407950827614,0.9453387889840599
32.68628628628629,0.8399369905727868,0.746224954553911,0.9454175229964135
33.01981981981982,0.8396369440252159,0.7456173455258011,0.9455120672854685
33.353353353353356,0.8393479279239432,0.7450172257635175,0.9456223557626038
33.68688688688689,0.8390694924184472,0.7444238664062246,0.9457483093686364
34.02042042042042,0.8388011886517026,0.7438365521190726,0.9458898357160588
34.353953953953955,0.8385425687054244,0.7432545812368204,0.9460468287474278
34.68748748748749,0.8382931855477294,0.7426772658977749,0.9462191684112855
35.02102102102102,0.8380525929832031,0.7421039321666989,0.9464067203569344
35.354554554554554,0.8378203456053628,0.7415339201454053,0.9466093356493356
35.68808808808809,0.8375959987515028,0.7409665840698303,0.9468268505053264
36.02162162162162,0.8373791084599174,0.740401292392456,0.9470590860522796
36.35515515515516,0.8371692314294873,0.7398374278490458,0.9473058481102394
36.68868868868869,0.8369659249816276,0.7392743875087471,0.947566926998486
37.022222222222226,0.8367687470245831,0.7387115828067174,0.9478420973673729
37.35575575575576,0.8365772560200699,0.7381484395585405,0.9481311180561882
37.68928928928929,0.8363910109522518,0.7375843979558002,0.94843373197768
38.022822822822825,0.8362095712990487,0.7370189125423028,0.9487496660297765
38.35635635635636,0.8360324970057702,0.7364514521705471,0.949078631034922
38.68988988988989,0.8358593484610695,0.7358814999381612,0.9494203217073328
39.023423423423424,0.8356896864752114,0.7353085531041396,0.9497744166483645
39.35695695695696,0.8355230722606516,0.7347321229848317,0.9501405783700707
39.69049049049049,0.8353590674149223,0.7341517348297457,0.9505184533469209
40.02402402402402,0.8351972339058218,0.733566927677343,0.950907672095535
40.357557557557556,0.8350371340588991,0.7329772541911015,0.9513078492821873
40.691091091091096,0.8348783305472386,0.7323822804762378,0.9517185838577361
41.02462462462463,0.8347203863835313,0.7317815858775605,0.9521394592195319
41.35815815815816,0.8345628649858676,0.7311747628423625,0.9525700434542765
41.691691691691695,0.8344054264032392,0.7305615282318336,0.953009963851028
42.02522522522523,0.8342480175210786,0.7299419386724285,0.9534590600502211
42.35875875875876,0.8340906383337824,0.7293161124149132,0.9539172124587091
42.692292292292294,0.833933288835749,0.7286841669246404,0.9543843022738968
43.02582582582583,0.8337759690213772,0.728046218821443,0.9548602115438407
43.35935935935936,0.8336186788850679,0.7274023838233128,0.9553448232235698
43.69289289289289,0.8334614184212221,0.7267527766937747,0.955838021227702
44.026426426426426,0.8333041876242422,0.7260975111928795,0.9563396904794511
44.35995995995996,0.8331469864885314,0.7254367000317129,0.9568497169561128
44.69349349349349,0.832989815008494,0.7247704548303276,0.9573679877311279
45.02702702702703,0.8328326731785362,0.7240988860789966,0.9578943910128265
45.360560560560565,0.832675560993064,0.7234221031026774,0.9584288161799568
45.6940940940941,0.8325184784464851,0.7227402140285887,0.9589711538141075
46.02762762762763,0.8323614255332085,0.7220533257567798,0.9595212957291327
46.361161161161164,0.8322044022476438,0.7213615439335888,0.9600791349976902
46.6946946946947,0.8320474085842016,0.720664972927872,0.9606445659750064
47.02822822822823,0.8318904445372938,0.7199637158098989,0.9612174843199802
47.36176176176176,0.8317335101013331,0.7192578743327934,0.9617977870137357
47.695295295295296,0.8315766052707341,0.7185475489164139,0.9623853723757401
48.02882882882883,0.8314197300399114,0.7178328386335593,0.9629801400775901
48.36236236236236,0.8312628844032813,0.7171138411983945,0.9635819911545865
48.695895895895895,0.8311060683552604,0.7163906529569823,0.9641908280151946
49.02942942942943,0.8309492818902672,0.7156633688798217,0.9648065544485055
49.36296296296297,0.8307925250027207,0.7149320825562825,0.9654290756297954
49.6964964964965,0.8306357976870417,0.7141968861908384,0.966058298124289
50.030030030030034,0.8304790999376511,0.7134578706009982,0.9666941298892248
50.36356356356357,0.8303224317489714,0.7127151252168364,0.9673364802743191
50.6970970970971,0.8301657931154259,0.7119687380820339,0.9679852600207237
51.03063063063063,0.8300091840314394,0.7112187958563313,0.9686403812585674
51.364164164164166,0.8298526044914374,0.7104653838193113,0.969301757503169
51.6976976976977,0.8296960544898461,0.7097085858754233,0.96996930365001
52.03123123123123,0.8295395340210933,0.7089484845601672,0.9706429359685466
52.364764764764764,0.8293830430796076,0.7081851610473585,0.9713225720949411
52.6982982982983,0.8292265816598191,0.7074186951573965,0.9720081310237892
53.03183183183183,0.829070149756158,0.7066491653664643,0.9726995330989157
53.36536536536536,0.8289137473630569,0.7058766488165902,0.9733967000033119
53.698898898898904,0.8287573744749486,0.7051012213265014,0.9740995547482751
54.03243243243244,0.8286010310862666,0.7043229574032075,0.9748080216618216
54.36596596596597,0.8284447171914459,0.703541930254253,0.975522026376431
54.6994994994995,0.8282884327849227,0.7027582118005797,0.9762414958161824
55.033033033033036,0.828132177861134,0.7019718726899409,0.9769663581833317
55.36656656656657,0.8279759524145183,0.7011829823108197,0.9776965429443941
55.7001001001001,0.8278197564395139,0.700391608806795,0.9784319808157698
56.033633633633634,0.8276635899305623,0.6995978190913158,0.9791726037489721
56.36716716716717,0.8275074528821037,0.698801678862827,0.9799183449154898
56.7007007007007,0.8273513452885816,0.6980032526202179,0.9806691386913441
57.03423423423423,0.8271952671444385,0.6972026036785393,0.9814249206413586
57.367767767767766,0.8270392184441189,0.6963997941849639,0.9821856275032013
57.70130130130131,0.8268831991820682,0.6955948851349446,0.982951197171221
58.03483483483484,0.82672720935273325,0.6947879363885425,0.9837215686801165
58.36836836836837,0.8265712489505608,0.6939790066868888,0.9844966821884669
58.701901901901905,0.8264153179700008,0.6931681536687587,0.9852764789621623
59.03543543543544,0.8262594164055025,0.6923554338872158,0.9860609013577464
59.36896896896897,0.8261035442515169,0.691540902826318,0.986849892805713
59.702502502502504,0.8259477015024946,0.6907246149178454,0.9876433977937696
60.03603603603604,0.8257918881528891,0.6899066235580398,0.9884413618501008
60.36956956956957,0.8256361041971545,0.689086981124325,0.98924373152664
60.7031031031031,0.8254803496297455,0.6882657389919934,0.9900504543823788
61.036636636636636,0.8253246244451179,0.6874429475508411,0.9908614789667303
61.37017017017017,0.8251689286377286,0.6866186562217332,0.9916767548029589
61.7037037037037,0.8250132622020361,0.6857929134730831,0.9924962323716989
62.03723723723724,0.824857625132499,0.6849657668372333,0.9933198630945679
62.370770770770775,0.8247020174235781,0.6841372629267239,0.9941475993178972
62.70430430430431,0.8245464390697338,0.6833074474504358,0.9949793942965822
63.03783783783784,0.8243908900654288,0.6824763652295995,0.9958152021780727
63.371371371371374,0.8242353704051266,0.6816440602136585,0.9966549779865056
63.70490490490491,0.8240798800832908,0.6808105754959758,0.9974986776069918
64.03843843843845,0.8239244190943863,0.6799759533293807,0.9983462577700685
64.37197197197197,0.8237689874328821,0.6791402351415466,0.9991976760363238
64.70550550550551,0.8236135850932431,0.6783034615501825,1.0000528907811856
65.03903903903904,0.8234582120699375,0.677465672378055,1.0009118611799102
65.37257257257258,0.8233028683574383,0.6766269066678162,1.0017745471927537
65.7061061061061,0.8231475539502122,0.6757872026966313,1.002640909550321
66.03963963963965,0.8229922688427322,0.6749465979906256,1.0035109097391366
66.37317317317317,0.8228370130294713,0.674105129339119,1.0043845099873976
66.70670670670671,0.8226817865049028,0.673262832808661,1.005261673250934
67.04024024024024,0.8225265892635018,0.6724197437568623,1.0061423631993776
67.37377377377378,0.8223714212997433,0.6715758968460162,1.0070265442025323
67.7073073073073,0.8222162826081062,0.6707313260565146,1.0079141813169634
68.04084084084084,0.8220611731830653,0.6698860647000475,1.0088052402727787
68.37437437437438,0.8219060930191023,0.6690401454326026,1.009699687460648
68.70790790790791,0.8217510421106959,0.6681936002672404,1.010597489919003
69.04144144144145,0.821596020452327,0.6673464605866695,1.0114986153214707
69.37497497497498,0.8214410280384781,0.6664987571556037,1.0124030319645112
69.70850850850852,0.8212860648636316,0.6656505201329108,1.013310708755263
70.04204204204204,0.8211311309222721,0.6648017790835526,1.0142216151996017
70.37557557557558,0.8209762262088832,0.6639525629903117,1.0151357213904064
70.70910910910911,0.8208213507179553,0.6631029002653188,1.0160529979960433
71.04264264264265,0.8206665044439715,0.6622528187613581,1.0169734162490283
71.37617617617617,0.8205116873814206,0.661402345782986,1.0178969479349322
71.70970970970971,0.8203568995247953,0.6605515080974356,1.0188235653814683
72.04324324324324,0.8202021408685812,0.6597003319453147,1.019753241447769
72.37677677677678,0.8200474114072738,0.6588488430511229,1.020685949513901
72.71031031031032,0.8198927111353617,0.6579970666335458,1.021621663470532
73.04384384384385,0.8197380400473423,0.65714502741558,1.0225603577088358
73.37737737737739,0.8195833981377068,0.6562927496344392,1.0235020071105507
73.71091091091091,0.8194287854009531,0.655440257051293,1.0244465870382664
74.04444444444445,0.8192742018315767,0.6545875729607992,1.025394073325867
74.37797797797798,0.8191196474240754,0.6537347202004605,1.0263444422691823
74.71151151151152,0.8189651221729481,0.6528817211597947,1.0272976706168118
75.04504504504504,0.818810626072694,0.6520285977893224,1.0282537355611312
75.37857857857858,0.8186561591178149,0.6511753716093813,1.0292126147294816
75.71211211211211,0.8185017213028114,0.6503220637187581,1.0301742861755236
76.04564564564565,0.8183473126221871,0.6494686948031553,1.0311387283707798
76.37917917917918,0.818192933070444,0.648615285143481,1.032105920196328
76.71271271271272,0.8180385826420904,0.6477618546239794,1.0330758409346872
77.04624624624626,0.81788426133163,0.6469084227401853,1.0340484702618364
77.37977977977978,0.817729969133569,0.6460550086067283,1.0350237882394213
77.71331331331332,0.8175757060424178,0.6452016309649734,1.036001775307114
78.04684684684685,0.8174214720526832,0.6443483081905014,1.0369824122751155
78.38038038038039,0.8172672671588769,0.643495058300443,1.0379656803168325
78.71391391391391,0.8171130913555091,0.6426418989606568,1.0389515609616862
79.04744744744745,0.8169589446370928,0.6417888474927615,1.0399400360880842
79.38098098098098,0.8168048269981396,0.6409359208810215,1.0409310879165241
79.71451451451452,0.816650738433165,0.6400831357790924,1.0419246990028541
80.04804804804805,0.8164966789366854,0.6392305085166241,1.0429208522316629
80.38158158158159,0.8163426485032129,0.6383780551057232,1.0439195308098017
80.71511511511511,0.8161886471272697,0.6375257912472941,1.0449207182600713
81.04864864864865,0.8160346748033706,0.6366737323372276,1.0459243984149926
81.38218218218219,0.8158807315260389,0.6358218934724807,1.0469305554107584
81.71571571571572,0.8157268172897896,0.6349702894570098,1.0479391736812604
82.04924924924926,0.8155729320891488,0.6341189348076015,1.0489502379522981
82.38278278278278,0.8154190759186362,0.6332678437595572,1.0499637332358513
82.71631631631632,0.8152652487727782,0.6324170302722802,1.0509796448245217
83.04984984984985,0.8151114506460957,0.6315665080347272,1.051997958286049
83.38338338338339,0.8149576815331162,0.6307162904707607,1.0530186594579827
83.71691691691692,0.8148039414283675,0.6298663907443792,1.054041734442436
84.05045045045046,0.8146502303263761,0.6290168217648382,1.055067169600957
84.38398398398398,0.8144965482216687,0.6281675961916666,1.0560949515495146
84.71751751751752,0.8143428951087796,0.62731872643958,1.057125067153595
85.05105105105105,0.8141892709822356,0.6264702246832792,1.0581575035233715
85.38458458458459,0.8140356758365711,0.6256221028621619,1.0591922480090192
85.71811811811813,0.8138821096663149,0.6247743726849229,1.060229288196085
86.05165165165165,0.8137285724660043,0.6239270456340702,1.0612686119009993
86.3851851851852,0.8135750642301754,0.6230801329703328,1.0623102071666435
86.71871871871872,0.8134215849533616,0.6222336457369819,1.0633540622580222
87.05225225225226,0.8132681346300995,0.6213875947640637,1.064400165658042
87.38578578578579,0.8131147132549277,0.6205419906725397,1.0654485060633636
87.71931931931933,0.8129613208223864,0.6196968438783412,1.066499072380346
88.05285285285285,0.8128079573270136,0.618852164596335,1.0675518537210673
88.38638638638639,0.812654622763352,0.6180079628442129,1.0686068393994481
88.71991991991992,0.8125013171259432,0.6171642484462933,1.069664018927436
