dose,RR,lb,ub
0,1,1,1
0.16616616616616617,0.9961518926611713,0.9936888135585931,0.9986210770540405
0.33233233233233234,0.9923192173645381,0.9874184907617961,0.9972442671103644
0.4984984984984985,0.9885025316354448,0.98118978673798,0.9958697779542026
0.6646646646646647,0.984702383712471,0.9750034325684341,0.9944978162125238
0.8308308308308309,0.9809193126478379,0.9688601357091668,0.9931285873592197
0.996996996996997,0.9771538484107554,0.9627605804171767,0.9917622957207175
1.1631631631631631,0.9734065119936127,0.9567054281808103,0.9903991444820118
1.3293293293293293,0.9696778155209195,0.9506953181538328,0.9890393356931161
1.4954954954954955,0.9659682623609049,0.9447308675928502,0.9876830702759265
1.6616616616616617,0.9622783472396839,0.9388126722977345,0.9863305480314959
1.827827827827828,0.958608556357902,0.9329413070547136,0.9849819676477128
1.993993993993994,0.954959367509773,0.9271173260818022,0.9836375267073824
2.16016016016016,0.951331250204424,0.9213412634762581,0.9822974216967044
2.3263263263263263,0.9477246657894656,0.9156136336637648,0.9809618480141462
2.4924924924924925,0.9441400675767063,0.9099349318490484,0.9796309999797044
2.6586586586586587,0.940577900969934,0.9043056344676532,0.9783050708445541
2.824824824824825,0.9370386035946859,0.8987261996386077,0.9769842528010795
2.990990990990991,0.9335226054299349,0.8931970676177277,0.9756687369932848
3.1571571571571573,0.9300303289416184,0.8877186612513136,0.9743587135275795
3.3233233233233235,0.926562189217941,0.8822913864300094,0.9730543714839361
3.4894894894894897,0.9231185941063818,0.8769156325426045,0.9717558989274167
3.655655655655656,0.9196999443523427,0.8715917729295686,0.9704634829200636
3.821821821821822,0.9163066337393716,0.8663201653361214,0.9691773095331534
3.987987987987988,0.912939049141995,0.8611011522252255,0.9678975638280121
4.1541541541541545,0.9095974401119497,0.8559348569643928,0.9666243830663747
4.32032032032032,0.9062816604799726,0.8508207831015342,0.9653577632744773
4.486486486486487,0.9029914923553063,0.8457583261850441,0.9640976742659495
4.652652652652653,0.8997267200559537,0.8407468898962114,0.9628440860275755
4.818818818818819,0.8964871300836424,0.8357858859278906,0.9615969687180692
4.984984984984985,0.8932725110991031,0.8308747338651443,0.9603562926668641
5.151151151151152,0.8900826538976525,0.8260128610678221,0.9591220283729197
5.317317317317317,0.8869173513850812,0.8211997025550473,0.9578941465035398
5.483483483483483,0.8837763985538404,0.8164347008915742,0.9566726178932031
5.64964964964965,0.880659592459523,0.8117173060759884,0.9554574135424057
5.8158158158158155,0.8775667321976363,0.8070469754307135,0.9542485046165129
5.981981981981982,0.874497618880662,0.8024231734937981,0.9530458624446224
6.148148148148148,0.8714520556153991,0.7978453719124485,0.9518494585184365
6.314314314314315,0.8684298474805862,0.7933130493382788,0.9506592644911431
6.48048048048048,0.8654308015047998,0.7888256913242481,0.9494752521763071
6.646646646646647,0.862454726644625,0.784382790223255,0.948297393546769
6.812812812812813,0.8595014337630936,0.7799838450883634,0.9471256607335532
6.978978978978979,0.8565707356083877,0.7756283615746269,0.9459600260247837
7.145145145145145,0.8536624467928047,0.7713158518424889,0.9448004618646092
7.311311311311312,0.850776383771979,0.767045834462727,0.9436469408521352
7.4774774774774775,0.8479123648243595,0.7628178343229188,0.9424994357403643
7.643643643643644,0.8450702100309369,0.7586313825354001,0.9413579194351449
7.80980980980981,0.8422497412552188,0.7544860163466907,0.9402223649941269
7.975975975975976,0.8394507821234496,0.7503812790483632,0.9390927456257256
8.142142142142141,0.8366731580050706,0.7463167198893291,0.9379690346880928
8.308308308308309,0.8339166959934189,0.7422918939895186,0.9368512056880951
8.474474474474475,0.8311812248866599,0.7383063622549284,0.9357392322803006
8.64064064064064,0.8284665751689523,0.7343596912940175,0.9346330882659718
8.806806806806806,0.8257725789918411,0.730451453335424,0.9335327475920664
8.972972972972974,0.823099070155876,0.7265812261469834,0.9324381843502445
9.13913913913914,0.8204458840924528,0.7227485929560246,0.9313493727758845
9.305305305305305,0.8178128578458738,0.7189531423709213,0.9302662872471036
9.471471471471471,0.8151998300556249,0.7151944683038801,0.9291889022837879
9.637637637637638,0.8126066409388671,0.7114721698949403,0.9281171925466272
9.803803803803804,0.8100331322731384,0.7077858514371685,0.9270511328361581
9.96996996996997,0.8074791473792636,0.7041351223030254,0.925990698091813
10.136136136136136,0.8049445311044708,0.7005195968718858,0.9249358633909764
10.302302302302303,0.8024291298057091,0.696938894458692,0.9238866039480474
10.468468468468469,0.7999327913331679,0.6933926392437216,0.9228428951135095
10.634634634634635,0.7974553650139923,0.6898804602034517,0.9218047123730058
10.8008008008008,0.7949967016361948,0.6864019910424977,0.9207720313464218
10.966966966966966,0.7925566534327583,0.6829568701266137,0.9197448277869744
11.133133133133134,0.790135074065929,0.6795447404167323,0.9187230775803068
11.2992992992993,0.7877318186116974,0.6761652494040289,0.91770675674359
11.465465465465465,0.7853467435444635,0.6728180490459909,0.9166958414246311
11.631631631631631,0.782979706721885,0.6695027957034776,0.9156903079009872
11.797797797797799,0.780630567369905,0.6662191500787531,0.9146901325790848
11.963963963963964,0.7782991860679583,0.6629667771544745,0.9136952919933479
12.13013013013013,0.7759854247343524,0.6597453461336219,0.912705762805329
12.296296296296296,0.7736891466118221,0.6565545303803526,0.9117215218028484
12.462462462462463,0.7714102162532555,0.6533940073617652,0.9107425458991383
12.62862862862863,0.7691484995075875,0.6502634585905575,0.9097688121319937
12.794794794794795,0.766903863505861,0.647162569568564,0.9088002976629281
12.96096096096096,0.7646761766474525,0.6440910297311591,0.9078369797763365
13.127127127127128,0.7624653085864582,0.6410485323925085,0.9068788358786624
13.293293293293294,0.7602711302182436,0.6380347746916597,0.9059258434975723
13.45945945945946,0.7580935136661474,0.6350494575394534,0.9049779802811353
13.625625625625625,0.7559323322683447,0.6320922855662433,0.9040352239970071
13.791791791791791,0.7537874605648621,0.6291629670704132,0.9030975525316217
13.957957957957959,0.7516587742847463,0.6262612139676749,0.9021649438893875
14.124124124124124,0.7495461503333816,0.6233867417411364,0.9012373761918887
14.29029029029029,0.7474494667799569,0.6205392693921267,0.9003148276770933
14.456456456456456,0.7453686028450779,0.6177185193917654,0.8993972766985648
14.622622622622623,0.7433034388885242,0.6149242176332635,0.8984847017246816
14.78878878878879,0.7412538563971494,0.6121560933849458,0.8975770813378594
14.954954954954955,0.7392197379729208,0.6094138792439798,0.8966743942337804
15.12112112112112,0.7372009673210996,0.6066973110908035,0.8957766192206272
15.287287287287288,0.735197429238557,0.6040061280442366,0.8948837352183228
15.453453453453454,0.7332090096022261,0.6013400724172677,0.8939957212577742
15.61961961961962,0.7312355953576882,0.5986988896735029,0.893112556480122
15.785785785785786,0.7292770745078899,0.5960823283842684,0.8922342201359961
15.951951951951951,0.7273333361019918,0.5934901401863538,0.8913606915847744
16.11811811811812,0.7254042702243446,0.5909220797403869,0.8904919502938481
16.284284284284283,0.7234897679835937,0.5883779046898309,0.8896279758378919
16.45045045045045,0.7215897215019076,0.5858573756205898,0.8887687478981378
16.616616616616618,0.7197040239043317,0.5833602560212189,0.8879142462616555
16.782782782782782,0.7178325693082634,0.5808863122437227,0.8870644508206368
16.94894894894895,0.715975252813048,0.5784353134649374,0.886219341571685
17.115115115115117,0.7141319704896942,0.5760070316484849,0.8853788986151087
17.28128128128128,0.7123026193707074,0.5736012415072901,0.8845431021542208
17.44744744744745,0.7104870974400382,0.5712177204666524,0.8837119324946432
17.613613613613612,0.7086853036231472,0.568856248627863,0.8828853700436131
17.77977977977978,0.7068971377771818,0.5665166087323572,0.8820633953092979
17.945945945945947,0.7051225006812656,0.5641985861263968,0.8812459889001116
18.11211211211211,0.7033612940268977,0.5619019687262703,0.8804331315240377
18.27827827827828,0.7016134204084622,0.5596265469840048,0.8796248039879552
18.444444444444446,0.6998787833138437,0.557372113853581,0.8788209871969703
18.61061061061061,0.6981572871151511,0.5551384647576426,0.8780216621537521
18.776776776776778,0.6964488370595447,0.5529253975546938,0.8772268099578722
18.942942942942942,0.6947533392601687,0.550732712506775,0.8764364118051499
19.10910910910911,0.6930707006871842,0.5485602122476106,0.8756504489870004
19.275275275275277,0.6914008291589054,0.5464077017512216,0.8748689028897886
19.44144144144144,0.6897436333330343,0.5442749883009931,0.8740917549941862
19.60760760760761,0.6880990226979942,0.5421618814591942,0.8733189868745339
19.773773773773772,0.6864669075643612,0.5400681930369379,0.8725505801982069
19.93993993993994,0.6848471990563919,0.5379937370645772,0.8717865167249852
20.106106106106107,0.6832398091036452,0.5359383297625309,0.8710267783064286
20.27227227227227,0.681644650432699,0.533901789512529,0.8702713468852545
20.43843843843844,0.6800616365589582,0.5318839368292754,0.8695202044947208
20.604604604604607,0.6784906817785571,0.5298845943325178,0.8687733332580126
20.77077077077077,0.676931701160348,0.5279035867195203,0.8680307153876332
20.936936936936938,0.6753846105379826,0.5259407407379324,0.867292333184798
21.103103103103102,0.6738493265020801,0.5239958851590465,0.8665581690388348
21.26926926926927,0.672325766392482,0.5220688507514396,0.8658282054265843
21.435435435435437,0.6708138482905941,0.5201594702549927,0.865102424911809
21.6016016016016,0.6693134910118125,0.5182675783552818,0.8643808101446021
21.76776776776777,0.6678246140980335,0.5163930116583344,0.8636633438608023
21.933933933933933,0.6663471378102475,0.5145356086657465,0.8629500088814125
22.1001001001001,0.6648809831212127,0.5126952097501536,0.862240788112021
22.266266266266268,0.663426071708212,0.5108716571310515,0.8615356645422277
22.43243243243243,0.6619823259458876,0.50906479485096,0.8608346212450737
22.5985985985986,0.6605496688991561,0.5072744687519252,0.8601376413764741
22.764764764764767,0.6591280243162008,0.5055005264523541,0.8594447081746552
22.93093093093093,0.6577173166215404,0.5037428173241789,0.8587558049595954
23.097097097097098,0.6563174709091756,0.5020011924703415,0.8580709151324688
23.263263263263262,0.6549284129358077,0.5002755047025974,0.857390022175093
23.42942942942943,0.6535500691141346,0.4985656085196323,0.856713109649381
23.595595595595597,0.6521823665062184,0.49687136008548677,0.8560401611967962
23.76176176176176,0.6508252328169248,0.49519261720828317,0.8553711605378097
23.92792792792793,0.6494785963874354,0.49352923931925213,0.8547060914713637
24.094094094094093,0.6481423861888304,0.49188108745205444,0.8540449378743364
24.26026026026026,0.646816531815739,0.49024802422238833,0.8533876837010103
24.426426426426428,0.6455009634800623,0.48862991380788695,0.8527343129825451
24.59259259259259,0.6441956120047614,0.4870266219282924,0.8520848098264536
24.75875875875876,0.6429004088177134,0.4854380158259083,0.85143915841608
24.924924924924927,0.6416152859456344,0.4838639642463244,0.8507973430100824
25.09109109109109,0.6403401760080683,0.4823043374194085,0.8501593479419195
25.25725725725726,0.6390750122114386,0.48075900704056257,0.8495251576193382
25.423423423423422,0.6378197283431675,0.47922784625223935,0.848894756523867
25.58958958958959,0.6365742587658545,0.4777107296257142,0.8482681292103106
25.755755755755757,0.6353385384115211,0.47620753314310943,0.8476452603062493
25.92192192192192,0.6341125027759141,0.4747181341796664,0.8470261345115405
26.08808808808809,0.6328960879128721,0.47324241148626256,0.8464107365978238
26.254254254254256,0.631689230428752,0.47178024517216977,0.8457990514080299
26.42042042042042,0.6304918674769137,0.4703315166880483,0.8451910638558906
26.586586586586588,0.6293039367522647,0.4688961088091749,0.8445867589254547
26.752752752752752,0.6281253764858638,0.46747390561890295,0.8439861216706045
26.91891891891892,0.6269561254395796,0.4660647924923452,0.8433891372145769
27.085085085085087,0.6257961229008081,0.46466865608028285,0.8427957907494866
27.25125125125125,0.624645308677246,0.463285384293294,0.8422060675358537
27.41741741741742,0.6235036230917177,0.46191486628609635,0.8416199529021315
27.583583583583582,0.6223710069770597,0.46055699244210613,0.8410374322442412
27.74974974974975,0.621247401671057,0.45921165435820527,0.8404584910251057
27.915915915915917,0.6201327490114327,0.4578787448297145,0.8398831147741886
28.08208208208208,0.6190269913308937,0.4565581578355742,0.8393112890870362
28.24824824824825,0.617930071452224,0.45524978852372067,0.8387429996248207
28.414414414414416,0.6168419326834325,0.4539535331966633,0.8381782321138874
28.58058058058058,0.6157625188129514,0.4526692892972579,0.8376169723453055
28.746746746746748,0.6146917741048841,0.451396955394667,0.8370592061744195
28.912912912912912,0.6136296432943034,0.45013643117051444,0.8365049195204061
29.07907907907908,0.6125760715825985,0.4488876174052226,0.8359540983658309
29.245245245245247,0.6115310046328708,0.44765041596453387,0.8354067287562107
29.41141141141141,0.6104943885653785,0.4464247297862156,0.834862796799577
29.57757757757758,0.6094661699530266,0.44521046286693805,0.8343222886660417
29.743743743743742,0.6084462958169051,0.4440075202493311,0.8337851905873672
29.90990990990991,0.6074347136218746,0.4428158080092145,0.833251488856538
30.076076076076077,0.6064313712721948,0.4416352332429951,0.8327211698273344
30.24224224224224,0.6054362171072009,0.44046570405523483,0.8321942199139108
30.40840840840841,0.604449199897023,0.4393071295463817,0.831670625590375
30.574574574574577,0.6034702688383504,0.43815941980066564,0.8311503733903696
30.74074074074074,0.6024993735502403,0.43702248587415354,0.8306334499066584
30.906906906906908,0.6015364640699674,0.43589623978296205,0.8301198417907131
31.073073073073072,0.6005814908489177,0.43478059449162665,0.8296095357523028
31.23923923923924,0.5996344047485251,0.43367546390162515,0.8291025185590876
31.405405405405407,0.5986951570362484,0.4325807628400508,0.8285987770362129
31.57157157157157,0.5977636993815882,0.43149640704843395,0.8280982980659066
31.73773773773774,0.5968399838521491,0.43042231317171414,0.8276010685870803
31.903903903903903,0.5959239629097356,0.42935839874735143,0.8271070755949306
32.070070070070074,0.5950155894064932,0.42830458219458456,0.826616306140544
32.23623623623624,0.5941148165810866,0.42726078280382895,0.8261287473305048
32.4024024024024,0.5932215980549149,0.42622692072620977,0.825644386326504
32.568568568568566,0.5923358878283697,0.4252029169632371,0.8251632103449522
32.73473473473474,0.5914576402771261,0.42418869335661014,0.8246852066565932
32.9009009009009,0.5905868101484739,0.42318417257815616,0.8242103625861206
33.067067067067065,0.5897233525576865,0.422189278119902,0.823738665511798
33.233233233233236,0.5888672229844234,0.4212039342842697,0.8232701028650791
33.3993993993994,0.5880183772691723,0.4202280661744031,0.8228046621302322
33.565565565565564,0.5871767716097236,0.41926159968461685,0.8223423308439657
33.731731731731735,0.5863423625576833,0.41830446149096967,0.8218830965950565
33.8978978978979,0.5855151070150185,0.4173565790419588,0.8214269470239801
34.06406406406406,0.5846949622306393,0.41641788054933426,0.820973869822544
34.230230230230234,0.5838818857970123,0.41548829497902967,0.8205238527335216
34.3963963963964,0.5830758356468109,0.4145677520422122,0.8200768835502903
34.56256256256256,0.5822767700495964,0.4136561821864434,0.8196329501164699
34.728728728728726,0.5814846476085328,0.41275351658695514,0.8191920403255647
34.8948948948949,0.5806994272571351,0.41185968713803706,0.8187541421206059
35.06106106106106,0.5799210682560492,0.410974626444533,0.8183192434937999
35.227227227227225,0.5791495301898617,0.41009826781344366,0.8178873324861727
35.393393393393396,0.5783847729639455,0.409230545245641,0.8174583971872226
35.55955955955956,0.5776267568013309,0.40837139342767986,0.8170324257345705
35.725725725725724,0.5768754422396134,0.4075207477237225,0.8166094063136151
35.891891891891895,0.5761307901278864,0.40667854416755606,0.8161893271571887
36.05805805805806,0.5753927616237071,0.4058447194547164,0.81577217654521506
36.22422422422422,0.5746613181900928,0.40501921093471077,0.8153579428043704
36.390390390390394,0.5739364215925427,0.404201956603334,0.8149466143077445
36.55655655655656,0.5732180338960929,0.4033928950950864,0.8145381794745066
36.72272272272272,0.5725061174623974,0.40259196567568306,0.8141326267695699
36.88888888888889,0.5718006349468384,0.4017991082346577,0.813729944703261
37.05505505505506,0.5711015492956653,0.4010142632780601,0.8133301218309896
37.22122122122122,0.5704088237431588,0.40023737192124154,0.812933146752921
37.387387387387385,0.5697224218088268,0.39946837588173395,0.8125390081136498
37.553553553553556,0.5690423072946218,0.3987072174722135,0.8121476946018756
37.71971971971972,0.5683684442821915,0.39795383959355524,0.8117591949500822
37.885885885885884,0.5677007971301481,0.3972081857279687,0.8113734979342156
38.052052052052055,0.5670393304713726,0.39647019993222493,0.8109905923733673
38.21821821821822,0.5663840092103368,0.39573982683095993,0.8106104671294572
38.38438438438438,0.5657347985204564,0.3950170116100659,0.8102331111069182
38.550550550550554,0.565091663841467,0.39430170001016196,0.8098585132523848
38.71671671671672,0.5644545708768249,0.39359383832014194,0.8094866625543817
38.88288288288288,0.5638234855911345,0.3928933733708074,0.8091175480430145
39.04904904904905,0.5631983742075974,0.3922002525285724,0.808751158789662
39.21521521521522,0.5625792032054885,0.3915144236892484,0.8083874839066721
39.38138138138138,0.5619659393176532,0.3908358352719038,0.8080265125470565
39.547547547547545,0.5613585495280301,0.3901644362127975,0.8076682339041892
39.713713713713716,0.5607570010691976,0.38950017595938863,0.8073126372115071
39.87987987987988,0.560161261419941,0.3888430044644149,0.806959711742211
40.046046046046044,0.5595712983028445,0.3881928721800452,0.8066094468089685
40.212212212212215,0.5589870796819041,0.38754973005210147,0.806261831763619
40.37837837837838,0.5584085737601673,0.3869135295143531,0.8059168559968816
40.54454454454454,0.5578357489773862,0.3862842224828729,0.8055745089380619
40.710710710710714,0.557268574007702,0.3856617613504692,0.8052347800547632
40.87687687687688,0.5567070177573452,0.3850460989811795,0.8048976588525979
41.04304304304304,0.5561510493623568,0.38443718870482874,0.8045631348749004
41.20920920920921,0.5556006381863366,0.3838349843116594,0.8042311977024438
41.37537537537538,0.5550557538182032,0.38323944004701516,0.8039018369531544
41.54154154154154,0.5545163660699823,0.3826505106060968,0.8035750422818316
41.707707707707705,0.5539824449746134,0.38206815112877657,0.8032508033798678
41.873873873873876,0.5534539607837731,0.3814923171944723,0.8029291099749691
42.04004004004004,0.5529308839657237,0.3809229648170852,0.8026099518308796
42.206206206206204,0.5524131852031763,0.3803600504399937,0.8022933187471046
42.372372372372375,0.5519008353911795,0.3798035309311122,0.8019792005586394
42.53853853853854,0.5513938056350186,0.37925336357799666,0.8016675871356939
42.7047047047047,0.5508920672481453,0.3787095060830233,0.8013584683834253
42.870870870870874,0.5503955917501149,0.37817191655860716,0.8010518342416674
43.03703703703704,0.549904350864549,0.3776405535224879,0.8007476746846627
43.2032032032032,0.549418316517117,0.3771153758930668,0.8004459797207985
43.36936936936937,0.5489374608335296,0.37659634298479466,0.80014673939234
43.53553553553554,0.5484617561375581,0.37608341450362004,0.7998499437751695
43.7017017017017,0.5479911749490638,0.3755765505424802,0.7995555829785229
43.867867867867865,0.5475256899820543,0.3750757115768573,0.7992636471447323
44.034034034034036,0.5470652741427471,0.3745808584603716,0.7989741264489655
