dose,RR,lb,ub
0,1,1,1
0.1566066066066066,0.9965223337916115,0.9957079162031919,0.9973374175151473
0.3132132132132132,0.9930573990538092,0.9914351488977527,0.9946823036402355
0.4698198198198198,0.9896057821725259,0.9871824981109298,0.9920350147853315
0.6264264264264264,0.986168060900153,0.9829507489156065,0.9893959035205602
0.7830330330330331,0.9827448044415439,0.9787406715547119,0.9867653186647618
0.9396396396396396,0.97933657354331,0.9745530215727496,0.9841436053748412
1.0962462462462463,0.9759439205863191,0.9703885399540735,0.9815311052359231
1.2528528528528529,0.9725673896813023,0.966247953267541,0.9789281563524292
1.4094594594594594,0.9692075167674858,0.9621319738171796,0.976335093440196
1.5660660660660661,0.965864829714156,0.958041299798508,0.9737522479197492
1.7226726726726727,0.9625398484250751,0.9539766154601532,0.9711799480108588
1.8792792792792792,0.9592330849456632,0.9499385912704132,0.9686185188284941
2.035885885885886,0.9559450435728648,0.9459278840884151,0.9660682824803072
2.1924924924924927,0.9526762209676206,0.9419451373395205,0.9635295581657732
2.349099099099099,0.9494271062698667,0.9379909811946343,0.9610026622771213
2.5057057057057057,0.9461981812159838,0.9340660327530755,0.9584879085021923
2.6623123123123125,0.9429899202586247,0.9301708962286652,0.95598560792937
2.8189189189189188,0.9398027906888466,0.9263061631386942,0.9534960691547291
2.9755255255255255,0.9366372527604779,0.9224724124954276,0.9510195983915606
3.1321321321321323,0.9334937598166533,0.9186702109998075,0.948556499582432
3.2887387387387386,0.9303727584184495,0.914900113237011,0.9461070745139549
3.4453453453453453,0.9272746884755589,0.9111626618735209,0.9436716229344344
3.601951951951952,0.9241999833789398,0.9074583878553637,0.9412504426745919
3.7585585585585584,0.9211490701353825,0.9037878106071668,0.9388438297715533
3.915165165165165,0.9181223695039354,0.9001514382316838,0.936452078596313
4.071771771771772,0.9151202961341351,0.8965497677094291,0.9340754819848913
4.228378378378379,0.9121432587059888,0.8929832850980637,0.9317143313734176
4.384984984984985,0.909191660071656,0.8894524657311607,0.9293689169373832
4.541591591591591,0.9062658973987847,0.8859577744159759,0.9270395277353235
4.698198198198198,0.9033663623154526,0.8824996656298416,0.9247264518572056
4.854804804804805,0.9004934410566718,0.8790785837147862,0.9224299765778111
5.0114114114114114,0.8976475146124138,0.8756949630699798,0.9201503885154259
5.168018018018018,0.8948289588771172,0.8723492283415856,0.9178879737961644
5.324624624624625,0.8920381448006406,0.8690417946095893,0.9156430182242794
5.481231231231232,0.889275438540625,0.8657730675711627,0.913415807458829
5.6378378378378375,0.8865412016162354,0.8625434437200975,0.9112066271970963
5.794444444444444,0.8838357910632508,0.8593533105218335,0.909015763365184
5.951051051051051,0.8811595595904755,0.8562030465835794,0.9068435023162317
6.107657657657658,0.8785128557374455,0.8530930218190074,0.9046901310367349
6.2642642642642645,0.8758960240334096,0.8500235976069761,0.9025559373614724
6.420870870870871,0.8733094051575627,0.8469951269437126,0.9004412101975877
6.577477477477477,0.8707533361005148,0.8440079545878545,0.8983462397583983
6.734084084084084,0.86822815032698,0.8410624171977247,0.8962713178075509
6.890690690690691,0.8657341779396723,0.8381588434601783,0.8942167379141772
7.047297297297297,0.8632717458443983,0.8352975542103239,0.892182795719749
7.203903903903904,0.8608411779163377,0.8324788625413877,0.890169789217376
7.360510510510511,0.8584427951675079,0.829703073903944,0.8881780190443391
7.517117117117117,0.856076915915407,0.826970486193696,0.8862077887887041
7.6737237237237235,0.853743855952838,0.8242813898269401,0.8842594053109097
7.83033033033033,0.8514439287189128,0.8216360678028028,0.8823331790812897
7.986936936936937,0.8491774454712437,0.8190347957512822,0.8804294245345415
8.143543543543544,0.8469447154593265,0.8164778419660709,0.878548460442222
8.30015015015015,0.8447460460991267,0.8139654674210824,0.8766906103044158
8.456756756756757,0.8425817431488817,0.8114979257695359,0.8748562027617935
8.613363363363364,0.8404521108861314,0.8090754633243917,0.8730455720293488
8.76996996996997,0.8383574522859963,0.8066983190188626,0.8712590583531791
8.926576576576577,0.8362980692007241,0.8043667243456536,0.8694970084917566
9.083183183183182,0.8342742625405247,0.802080903273513,0.8677597762232132
9.23978978978979,0.8322863324557219,0.7998410721395969,0.866047722880251
9.396396396396396,0.8303344874492263,0.7976473205693281,0.8643611572034922
9.553003003003003,0.8284184776079048,0.7954991341135174,0.8627000893055241
9.70960960960961,0.8265379135845087,0.7933958147617585,0.8610644395669946
9.866216216216216,0.8246924119730359,0.7913366713911946,0.859454134951481
10.022822822822823,0.8228815952502775,0.789321019552771,0.8578691090543938
10.17942942942943,0.821105091665465,0.787348181187007,0.8563093021215932
10.336036036036036,0.819362535131968,0.7854174843407977,0.8547746610725822
10.492642642642643,0.8176535651209967,0.7835282628860469,0.8532651395273385
10.64924924924925,0.8159778265572644,0.781679856240889,0.8517806978358828
10.805855855855857,0.814334969716567,0.7798716090942335,0.8503213031097194
10.962462462462463,0.8127246501252385,0.7781028711343512,0.8488869292542971
11.119069069069068,0.8111465284614379,0.7763729967822125,0.8474775570016538
11.275675675675675,0.8096002704582316,0.7746813449302927,0.846093173942404
11.432282282282282,0.8080855468084279,0.773027278687567,0.8447337745562256
11.588888888888889,0.806602033071128,0.7714101651314359,0.8433993602399886
11.745495495495495,0.8051494095799537,0.7698293750673347,0.8420899393326556
11.902102102102102,0.8037273613529172,0.7682842827968133,0.8408055271360579
12.058708708708709,0.8023355780038945,0.766774265894888,0.8395461459306328
12.215315315315316,0.8009737536556704,0.7652987049975053,0.8383118249851813
12.371921921921922,0.7996415868545182,0.7638569835999773,0.8371026005596777
12.528528528528529,0.7983387804862828,0.7624484878672846,0.8359185159001385
12.685135135135136,0.7970650416939316,0.7610726064571626,0.8347596212245326
12.841741741741743,0.7958200817965451,0.7597287303569237,0.8336259736986896
12.99834834834835,0.7946036162097128,0.7584162527349777,0.8325176374011439
13.154954954954954,0.7934153643673052,0.7571345688080433,0.8314346832758379
13.311561561561561,0.792255049644592,0.75588307572505,0.8303771890715903
13.468168168168168,0.7911223992826779,0.7546611724687394,0.8293452392672378
13.624774774774774,0.7900171443142254,0.753468259775976,0.8283389249813543
13.781381381381381,0.7889390194904401,0.7523037400777655,0.8273583438654674
13.937987987987988,0.7878877632092887,0.7511670174599637,0.8264035999797106
14.094594594594595,0.7868631174449233,0.7500574976456251,0.8254748036498807
14.251201201201201,0.785864827678289,0.7489745879999016,0.8245720713049185
14.407807807807808,0.7848926428288838,0.7479176975583424,0.8236955252938821
14.564414414414415,0.7839463151876526,0.7468862370793792,0.8228452936815616
14.721021021021022,0.7830256003509858,0.7458796191216922,0.8220215100219651
14.877627627627628,0.7821302571558015,0.7448972581470511,0.8212243131090144
15.034234234234233,0.7812600476156879,0.7439385706491074,0.8204538467039076
15.19084084084084,0.7804147368580817,0.7430029753084769,0.8197102592387429
15.347447447447447,0.7795940930624631,0.7420898931742977,0.8189937034961552
15.504054054054054,0.7787978873995428,0.7411987478722796,0.8183043362648867
15.66066066066066,0.7780258939714226,0.7403289658390723,0.817642317971404
15.817267267267267,0.7772778897527073,0.739479976582579,0.8170078122878747
15.973873873873874,0.7765536545325468,0.738651212967622,0.8164009857170402
16.13048048048048,0.7758529708575929,0.7378421115261414,0.8158220071547463
16.287087087087087,0.7751756239758455,0.7370521127908651,0.8152710474311374
16.443693693693692,0.7745214017813753,0.7362806616511433,0.8147482788317711
16.6003003003003,0.7738900947598993,0.7355272077293861,0.8142538746001553
16.756906906906906,0.7732814959351958,0.7347912057762966,0.8137880084234723
16.913513513513514,0.7726954008163378,0.7340721160828316,0.8133508539035008
17.07012012012012,0.7721316073457295,0.7333694049065902,0.8129425840149913
17.226726726726728,0.7715899158479286,0.7326825449100905,0.8125633705539835
17.383333333333333,0.7710701289792378,0.7320110156081864,0.812213383578772
17.53993993993994,0.7705720516780497,0.7313543038216725,0.8118927908464209
17.696546546546546,0.7700954911159299,0.730711904133965,0.8116017572479002
17.853153153153155,0.7696402566494213,0.7300833193475972,0.8113404442450594
18.00975975975976,0.7692061597725576,0.7294680609371647,0.8111090093127622
18.166366366366365,0.7687930140700676,0.7288656494952841,0.8109076053895764
18.322972972972973,0.7684006351712598,0.7282756151680956,0.8107363803404489
18.47957957957958,0.7680288407045707,0.7276974980768536,0.8105954764347831
18.636186186186187,0.7676774502527639,0.727130848722199,0.8104850298432853
18.792792792792792,0.7673462853087678,0.7265752283678107,0.8104051701568459
18.9493993993994,0.7670351692321367,0.7260302094002706,0.810356019930585
19.106006006006005,0.7667439272061249,0.7254953756621636,0.8103376942560043
19.262612612612614,0.76647238619536,0.7249703227556595,0.8103503003639644
19.41921921921922,0.7662203749041032,0.724454658314085,0.8103939372609459
19.575825825825827,0.7659877237350862,0.723948002239289,0.8104686954007541
19.732432432432432,0.7657742647489106,0.7234499869029346,0.8105746563935088
19.88903903903904,0.7655798316240019,0.7229602573101922,0.8107118927534057
20.045645645645646,0.765404259617104,0.7224784712246798,0.8108804676863772
20.20225225225225,0.7652473855243047,0.7220042992538729,0.8110804349183972
20.35885885885886,0.7651090476425825,0.7215374248945906,0.811311838564797
20.515465465465464,0.7649890857318629,0.7210775445385428,0.8115747130405765
20.672072072072073,0.7648873409775754,0.720624367438302,0.8118690830113184
20.828678678678678,0.7648036559537009,0.7201776156344242,0.8121949633839574
20.985285285285286,0.7647378745862998,0.7197370238447807,0.8125523593363109
21.14189189189189,0.7646898421175123,0.7193023393174884,0.8129412663839627
21.2984984984985,0.764659405070021,0.7188733216491093,0.8133616704827994
21.455105105105105,0.7646464112119672,0.7184497425700543,0.8138135481652422
21.611711711711713,0.7646507095223131,0.7180313856993454,0.8142968667079951
21.768318318318318,0.7646721501566399,0.7176180462710842,0.8148115843289376
21.924924924924927,0.764710584413375,0.7172095308351185,0.8153576504106481
22.08153153153153,0.7647658647004402,0.7168056569345198,0.8159350057479241
22.238138138138137,0.7648378445023113,0.7164062527625494,0.8165435828165929
22.394744744744745,0.7649263783474857,0.716011156801846,0.8171833060608703
22.55135135135135,0.7650313217763446,0.7156202174485576,0.8178540921965123
22.70795795795796,0.7651525313094087,0.7152332926241267,0.8185558505270378
22.864564564564564,0.7652898644159769,0.7148502493773761,0.8192884832703534
23.021171171171172,0.76544317948314,0.7144709634794644,0.820051885893189
23.177777777777777,0.7656123357851682,0.7140953190141773,0.8208459474508665
23.334384384384386,0.7657971934532597,0.7137232079658934,0.8216705509300374
23.49099099099099,0.7659976134456481,0.7133545298074279,0.8225255735921715
23.6475975975976,0.7662134575180611,0.7129891910898066,0.8234108873157293
23.804204204204204,0.7664445881945257,0.7126271050358568,0.8243263589351099
23.960810810810813,0.7666908687385102,0.7122681911393379,0.8252718505746383
24.117417417417418,0.7669521631244056,0.7119123747711645,0.8262472199760252
24.274024024024023,0.7672283360093314,0.7115595867941004,0.8272523208179027
24.43063063063063,0.7675192527052662,0.7112097631871322,0.82828700302621
24.587237237237236,0.7678247791514987,0.7108628446805701,0.8293511130743754
24.743843843843845,0.76814478188739,0.7105187764027552,0.8304444942723936
24.90045045045045,0.7684791280254456,0.7101775075391029,0.8315669870440562
25.057057057057058,0.7688276852246912,0.7098389910040678,0.8327184291917399
25.213663663663663,0.7691903216643488,0.7095031831264744,0.8338986561482943
25.37027027027027,0.7695669060178078,0.7091700433485335,0.835107501215697
25.526876876876877,0.7699573074268868,0.7088395339387448,0.8363447957902586
25.683483483483485,0.7703613954763826,0.7085116197187824,0.8376103695742777
25.84009009009009,0.7707790401689026,0.7081862678043628,0.8389040507741328
25.9966966966967,0.7712101118999771,0.7078634473600026,0.8402256662848869
26.153303303303304,0.7716544814334453,0.7075431293675069,0.8415750418615608
26.30990990990991,0.7721120198771152,0.7072252864079535,0.8429520022772963
26.466516516516517,0.7725825986586926,0.7069098924568881,0.8443563714686881
26.623123123123122,0.7730660895019739,0.7065969226923875,0.8457879726686114
26.77972972972973,0.7735623644033023,0.7062863533156176,0.8472466285269163
26.936336336336336,0.7740712956082838,0.7059781613834712,0.8487321612193932
27.092942942942944,0.7745927555887594,0.7056723246528492,0.850244392545436
27.24954954954955,0.7751266170200302,0.7053688214361254,0.851783144014856
27.406156156156158,0.7756727527583346,0.7050676304673245,0.8533482369243104
27.562762762762762,0.776231035818575,0.7047687307785305,0.8549394924238216
27.71936936936937,0.7768013393522886,0.7044721015860397,0.8565567315738642
27.875975975975976,0.7773835366258631,0.7041777221857695,0.8581997753935012
28.032582582582585,0.7779775009989952,0.703885571857443,0.8598684449000494
28.18918918918919,0.778583105903387,0.7035956297770685,0.8615625611407425
28.345795795795794,0.7792002248216827,0.7033078749372442,0.8632819452168611
28.502402402402403,0.7798287312666379,0.7030222860748302,0.8650264183007764
28.659009009009008,0.7804684987605258,0.7027388416055423,0.8667958016463578
28.815615615615616,0.7811194008147766,0.7024575195650337,0.8685899165931671
28.97222222222222,0.7817813109098444,0.7021782975560459,0.870408584564851
29.12882882882883,0.7824541024753074,0.7019011527012312,0.8722516270621378
29.285435435435435,0.7831376488701955,0.7016260616012584,0.8741188656508105
29.442042042042043,0.783831823363545,0.7013530002978349,0.8760101219450307
29.59864864864865,0.7845364991151779,0.7010819442412937,0.8779252175863508
29.755255255255257,0.7852515491567097,0.7008128682624132,0.8798639742187562
29.911861861861862,0.7859768463727788,0.7005457465481523,0.8818262134600467
30.068468468468467,0.7867122634824998,0.7002805526209993,0.8838117568698548
30.225075075075075,0.7874576730211402,0.7000172593216568,0.8858204259145829
30.38168168168168,0.7882129473220193,0.6997558387947903,0.8878520419295282
30.53828828828829,0.788977958498628,0.6994962624775934,0.8899064260784416
30.694894894894894,0.7897525784269693,0.6992385010909321,0.8919833993107545
30.851501501501502,0.7905366787281215,0.6989825246328493,0.8940827823166999
31.008108108108107,0.791330130751021,0.6987283023742215,0.8962043954805328
31.164714714714716,0.7921328055554646,0.6984758028563742,0.8983480588320358
31.32132132132132,0.7929445738953345,0.6982249938904795,0.900513591996505
31.47792792792793,0.79376530620204,0.6979758425585618,0.9027008141433699
31.634534534534534,0.7945948725681841,0.6977283152159638,0.9049095439336169
31.791141141141143,0.7954331427314482,0.6974823774951224,0.9071395994661572
31.947747747747748,0.7962799860586975,0.6972379943105216,0.9093907982232737
32.104354354354356,0.7971352715303088,0.6969951298646991,0.9116629570152778
32.26096096096096,0.7979988677247196,0.6967537476551928,0.9139558919244926
32.417567567567566,0.7988706428031996,0.6965138104823175,0.9162694182486698
32.574174174174175,0.7997504644948443,0.6962752804576786,0.9186033504439425
32.73078078078078,0.8006382000817943,0.6960381190133312,0.9209575020674088
32.887387387387385,0.8015337163846754,0.6958022869114994,0.92333168571943
33.04399399399399,0.8024368797482655,0.6955677442547845,0.9257257129857243
33.2006006006006,0.8033475560273903,0.6953344504967918,0.9281393943793362
33.35720720720721,0.8042656105730397,0.6951023644531077,0.9305725392825376
33.51381381381381,0.8051909082187184,0.6948714443125773,0.9330249558887359
33.67042042042042,0.80612331326702,0.6946416476488207,0.9354964511444396
33.82702702702703,0.8070626894764381,0.6944129314319509,0.9379868306913444
33.98363363363364,0.8080089000484002,0.6941852520404359,0.9404958988085731
34.14024024024024,0.8089618076145434,0.6939585652730799,0.943023458355138
34.29684684684685,0.8099212742242174,0.6937328263610772,0.9455693107126467
34.453453453453456,0.8108871613322265,0.6935079899801118,0.9481332557283052
34.61006006006006,0.8118593297868086,0.6932840102624735,0.9507150916582492
34.766666666666666,0.8128376398178506,0.6930608408091615,0.9533146151112338
34.923273273273274,0.8138219510253492,0.6928384347019583,0.9559316209927257
35.07987987987988,0.8148121223681062,0.6926167445154456,0.9585659024494059
35.236486486486484,0.815808012152676,0.6923957223289516,0.9612172508141329
35.39309309309309,0.81680947802255,0.692175319738407,0.9638854555513715
35.5496996996997,0.8178163769475982,0.691955487868102,0.9665703042031293
35.70630630630631,0.8188285652137511,0.6917361773823265,0.9692715823354024
35.86291291291291,0.8198458984129392,0.6915173384968855,0.9719890734851715
36.01951951951952,0.8208682314332811,0.6912989209904795,0.9747225591079473
36.17612612612613,0.8218954184495337,0.6910808742159462,0.9774718185259064
36.33273273273273,0.822927312913793,0.6908631471113497,0.9802366288766113
36.48933933933934,0.8239637675464575,0.6906456882109162,0.9830167650623463
36.64594594594595,0.8250046343274577,0.690428445655817,0.9858119997000849
36.802552552552555,0.8260497644877419,0.6902113672047816,0.9886221030720902
36.95915915915916,0.8270990085010362,0.689994400244555,0.9914468430771813
37.115765765765765,0.8281522160758682,0.6897774918001834,0.9942859851826629
37.272372372372374,0.8292092361478671,0.6895605885451381,0.9971392923769457
37.42897897897898,0.8302699168723328,0.689343636811269,1.0000065251228578
37.585585585585584,0.8313341056170847,0.6891265825985933,1.0028874413116695
37.74219219219219,0.8324016489555881,0.6889093715849177,1.0057817962178404
37.8987987987988,0.8334723926603644,0.6886919491352971,1.008689342454503
38.05540540540541,0.8345461816966816,0.6884742603113276,1.0116098299296892
38.21201201201201,0.8356228602165341,0.6882562498802806,1.0145430058033207
38.36861861861862,0.8367022715529128,0.688037862324077,1.0174886144449697
38.52522522522523,0.8377842582143658,0.6878190418481056,1.020446397392405
38.68183183183183,0.8388686618798545,0.687599732389886,1.0234160933109293
38.83843843843844,0.839955323393905,0.6873798776275825,1.026397437953527
38.995045045045046,0.841044082762069,0.6871594209883715,1.0293901641218424
39.151651651651655,0.8421347791466748,0.6869383056566616,1.0323940016279702
39.308258258258256,0.8432272508628944,0.6867164745821748,1.035408677257109
39.464864864864865,0.844321335375116,0.6864938704878903,1.0384339147310626
39.62147147147147,0.8454168845615624,0.6862704432233386,1.041469461142417
39.77807807807808,0.8465138554387628,0.686046193202082,1.0445152448192665
39.93468468468468,0.8476122496907832,0.6858211417877986,1.0475712719398298
40.09129129129129,0.8487120691645228,0.6855953097866282,1.0506375496788363
40.2478978978979,0.849813315709279,0.6853687173924329,1.053714085907552
40.4045045045045,0.8509159911767487,0.6851413842085204,1.0568008891723055
40.56111111111111,0.8520200974210294,0.684913329268477,1.059897968673905
40.71771771771772,0.8531256362986273,0.6846845710561515,1.0630053342479193
40.87432432432433,0.8542326096684555,0.684455127524823,1.0661229963457548
41.03093093093093,0.8553410193918404,0.6842250161155976,1.0692509660165215
41.18753753753754,0.856450867332521,0.6839942537750624,1.0723892548896297
41.344144144144146,0.8575621553566586,0.6837628569722374,1.0755378751581086
41.500750750750754,0.8586748853328329,0.6835308417148463,1.0786968395625782
41.657357357357355,0.85978905913205,0.6832982235649502,1.0818661613758875
