dose,RR,lb,ub
0,1,1,1
0.15815815815815815,0.9971306392760839,0.9961848460203493,0.9980773304825212
0.3163163163163163,0.9942704449414178,0.9923855871730367,0.996158882657808
0.47447447447447444,0.9914203158251472,0.9886034872060663,0.9942451704360156
0.6326326326326326,0.9885811402089881,0.9848397898290226,0.9923367037663763
0.7907907907907907,0.9857537959248667,0.9810957189314311,0.9904339886821956
0.9489489489489489,0.9829391504604075,0.9773724788166912,0.9885375273483992
1.107107107107107,0.9801380610721065,0.9736712544510722,0.9866478181116551
1.2652652652652652,0.9773513749060212,0.9699932117272656,0.9847653555530959
1.4234234234234233,0.9745799291258206,0.9663394977420018,0.9828906305436699
1.5815815815815815,0.9718245510480359,0.9627112410872426,0.981024130302151
1.7397397397397396,0.9690860582843586,0.9591095521544754,0.979166338455837
1.8978978978978978,0.966365258890834,0.9555355234516415,0.9773177351039742
2.0560560560560557,0.9636629515238053,0.9519902299322416,0.9754787968839436
2.214214214214214,0.9609799256024629,0.9484747293361702,0.9736499970402512
2.3723723723723724,0.9583169614778625,0.9449900625418407,0.9718318054963683
2.5305305305305303,0.9556748306082747,0.9415372539291735,0.9700246889294708
2.6886886886886883,0.9530542957407373,0.9381173117530258,0.9682291108481328
2.8468468468468466,0.9504561110986828,0.9347312285266535,0.9664455316730359
3.005005005005005,0.9478810225755211,0.9313799814148042,0.9646744088207589
3.163163163163163,0.9453297679340594,0.9280645326360469,0.9629161967907235
3.321321321321321,0.9428030770116476,0.9247858298739563,0.9611713472553749
3.479479479479479,0.940301671930942,0.9215448066967705,0.9594403091536878
3.6376376376376376,0.9378262673161872,0.9183423829851572,0.9577235287880946
3.7957957957957955,0.9353775705149155,0.9151794653677224,0.9560214499249448
3.9539539539539534,0.9329562818249769,0.912056947663906,0.9543345138986121
4.112112112112111,0.93056309472681,0.9089757113339115,0.952663159719383
4.27027027027027,0.9281986961208764,0.905936625935325,0.9510078241852664
4.428428428428428,0.9258637665701813,0.9029405495860763,0.9493689419978864
4.586586586586586,0.923558980547813,0.8999883294334035,0.947746945882627
4.744744744744745,0.921285006689436,0.8970808021284769,0.946142266713224
4.902902902902903,0.9190425080506839,0.8942187943063444,0.9445553336410106
5.061061061061061,0.9168321423693969,0.8914031230708522,0.9429865742290489
5.219219219219219,0.9146545623326623,0.8886345964841929,0.9414364145913999
5.3773773773773765,0.9125104158486163,0.8859140140607281,0.9399052795378129
5.535535535535535,0.9104003463229775,0.8832421672647232,0.9383935927241378
5.693693693693693,0.9083249929402842,0.8806198400116173,0.9369017768088023
5.851851851851851,0.906284990949817,0.8780478091724451,0.9354302536157224
6.01001001001001,0.904280953103375,0.8755268188886172,0.9339794333011489
6.168168168168168,0.902312989361371,0.8730569140336917,0.9325494337003034
6.326326326326326,0.9003806723343808,0.870637395113643,0.931140058609008
6.484484484484484,0.8984835538770125,0.8682675371966674,0.9297510986001711
6.642642642642642,0.8966211919583443,0.8659466271740253,0.9283823467185124
6.8008008008008005,0.8947931505328324,0.8636739634801519,0.9270335984359818
6.958958958958958,0.8929989994136726,0.8614488558168403,0.9257046516100685
7.117117117117116,0.8912383141485626,0.8592706248816887,0.9243953064446238
7.275275275275275,0.88951067589781,0.857138602100946,0.9231053654528968
7.433433433433433,0.8878156713147347,0.8550521293668328,0.9218346334225357
7.591591591591591,0.8861528924283162,0.8530105587793828,0.9205829173823479
7.749749749749749,0.8845219365280358,0.85101325239281,0.9193500265706518
7.907907907907907,0.8829224060508661,0.8490595819663961,0.9181357724050789
8.066066066066066,0.8813539084703605,0.8471489287198596,0.9169399684537082
8.224224224224223,0.8798160561877987,0.8452806830931657,0.9157624304074319
8.382382382382382,0.8783084664253412,0.8434542445107169,0.9146029760534722
8.54054054054054,0.8768307611211532,0.8416690211498601,0.913461425249973
8.698698698698697,0.8753825668264519,0.8399244297136381,0.9123375999016081
8.856856856856856,0.8739635146044393,0.838219895207709,0.9112313239361528
9.015015015015015,0.8725732399310782,0.836554850721352,0.910142423281971
9.173173173173172,0.87121138259767394,0.834928737212479,0.909070725846381
9.33133133133133,0.8698775866152232,0.8333410032965674,0.9080160614948611
9.48948948948949,0.8685715001204928,0.8317911050394297,0.9069782620310677
9.647647647647647,0.8672927752837923,0.8302785057537361,0.905957161177634
9.805805805805806,0.8660410682184061,0.8288026757992046,0.9049525945577281
9.963963963963963,0.8648160388916495,0.827363092386378,0.9039643996773439
10.122122122122121,0.8636173510375162,0.8259592393839018,0.9029924159083064
10.28028028028028,0.8624446720708854,0.8245906071292286,0.9020364844719704
10.438438438438437,0.86129767300325355,0.8232566922426628,0.9010964484235942
10.596596596596596,0.8601760283599652,0.8219569974446753,0.9001721526373712
10.754754754754753,0.8590794160989081,0.8206910313764085,0.8992634437921018
10.912912912912912,0.8580075175306459,0.8194583084233019,0.898370170357489
11.07107107107107,0.8569600172399582,0.818258348541767,0.8974921825810419
11.229229229229228,0.8559366030087632,0.8170906770888432,0.8966293324755701
11.387387387387387,0.8549369657403916,0.8159548246547697,0.895781473807252
11.545545545545545,0.853960799385189,0.8148503268984109,0.8949484620842622
11.703703703703702,0.8530078008674201,0.813776724385476,0.8941301545459374
11.861861861861861,0.8520776700134485,0.8127335624294739,0.8933264101524662
12.02002002002002,0.8511701094811694,0.811720390935351,0.892537089575082
12.178178178178177,0.8502848246906719,0.8107367642457599,0.8917620551867402
12.336336336336336,0.8494215237561049,0.8097822409899117,0.8910011710532583
12.494494494494493,0.848579917418729,0.8088563839349653,0.8902543029248988
12.652652652652652,0.8477597189811272,0.8079587598399147,0.8895213182283699
12.81081081081081,0.8469606442425586,0.8070889393119336,0.8888020860592202
12.968968968968968,0.8461824114354295,0.8062464966651441,0.8880964771746014
13.127127127127126,0.8454247411628663,0.8054310097817784,0.8874043639863707
13.285285285285283,0.8446873563373666,0.8046420599757036,0.8867256205545029
13.443443443443442,0.8439699821205139,0.8038792318582905,0.8860601225807805
13.601601601601601,0.8432723458637328,0.8031421132066012,0.8854077474027273
13.759759759759758,0.842594177050071,0.8024302948338847,0.8847683739877492
13.917917917917917,0.8419352072369881,0.8017433704623654,0.8841418829274427
14.076076076076076,0.8412951700001343,0.8010809365983186,0.8835281564320283
14.234234234234233,0.8406738008781056,0.8004425924094309,0.8829270783248664
14.392392392392392,0.8400708373181547,0.7998279396044468,0.8823385340370048
14.55055055055055,0.8394860186228466,0.7992365823151063,0.8817624106017077
14.708708708708707,0.8389190858976409,0.7986681269803888,0.8811985966489115
14.866866866866866,0.8383697819993878,0.7981221822330754,0.8806469823995493
15.025025025025023,0.8378378514857239,0.797598358788656,0.8801074596596797
15.183183183183182,0.8373230405653509,0.7970962693366037,0.8795799218143555
15.34134134134134,0.8368250970491897,0.7966155284340528,0.8790642638211609
15.499499499499498,0.8363437703023904,0.7961557524019182,0.8785603822033407
15.657657657657657,0.8358788111971912,0.7957165592234983,0.8780681750424436
15.815815815815814,0.8354299720666108,0.7952975684456153,0.8775875419703932
15.973973973973973,0.8349970066589635,0.7948984010823472,0.8771183841608972
16.13213213213213,0.8345796700931855,0.7945186795214144,0.8766606043200992
16.29029029029029,0.8341777188149626,0.7941580274332923,0.8762141066763754
16.448448448448445,0.8337909105536462,0.7938160696831248,0.8757787969691657
16.606606606606604,0.8334190042799497,0.7934924322455202,0.8753545824367303
16.764764764764763,0.8330617601644139,0.793186742122323,0.8749413718027149
16.922922922922922,0.8327189395366325,0.7928986272634536,0.8745390752613993
17.08108108108108,0.8323903048452274,0.7926277164909236,0.874147604461501
17.23923923923924,0.8320756196185668,0.792373639426133,0.873766872488398
17.397397397397395,0.8317746484262148,0.7921360264205715,0.8733967938446314
17.555555555555554,0.8314871568411069,0.7919145084900433,0.8730372844285375
17.713713713713712,0.8312129114024398,0.7917087172525502,0.8726882615108589
17.87187187187187,0.830951679579273,0.7915182848699683,0.8723496437091758
18.03003003003003,0.8307032297348284,0.7913428439936631,0.8720213509599904
18.188188188188185,0.8304673310914858,0.791182027714193,0.8717033044882997
18.346346346346344,0.8302437536964655,0.7910354695152582,0.8713954267744772
18.504504504504503,0.8300322683881899,0.7909028032320529,0.8710976415182883
18.66266266266266,0.8298326467633199,0.7907836630141903,0.8708098735998543
18.82082082082082,0.8296446611444602,0.79067768329337,0.8705320490373802
18.97897897897898,0.8294680845485244,0.7905844987559585,0.870264094941455
19.137137137137135,0.8293026906557585,0.7905037443206648,0.8700059394657343
19.295295295295293,0.8291482537794129,0.7904350551214828,0.869757511753814
19.453453453453452,0.8290045488360634,0.790378066496088,0.8695187418820999
19.61161161161161,0.8288713513165697,0.7903324139798589,0.8692895607984831
19.76976976976977,0.8287484372576717,0.7902977333057074,0.8690699002566314
19.927927927927925,0.8286355832142175,0.7902736604098906,0.8688596927457115
20.086086086086084,0.828532566232017,0.7902598314439716,0.8686588714153582
20.244244244244243,0.8284391638213209,0.7902558827930996,0.8684673699957203
20.4024024024024,0.8283551539309175,0.7902614511007611,0.8682851227124133
20.56056056056056,0.8282803149228449,0.7902761733001497,0.8681120641962258
20.718718718718716,0.8282144255477168,0.7902996866522942,0.8679481293874348
20.876876876876874,0.8281572649206547,0.7903316287910594,0.8677932534345992
21.035035035035033,0.8281086124978283,0.7903716377751336,0.8676473715877226
21.193193193193192,0.8280682480535971,0.7904193521470839,0.8675104190856866
21.35135135135135,0.828035951658252,0.7904744109995482,0.8673823310378846
21.509509509509506,0.8280115036563549,0.7905364540486104,0.8672630423000073
21.667667667667665,0.8279946846456718,0.790605121714371,0.8671524873439531
21.825825825825824,0.8279852754567009,0.7906800552087104,0.867050600121874
21.983983983983983,0.8279830571327884,0.7907608966301982,0.86695731392438935
22.14214214214214,0.8279878109108348,0.7908472890660777,0.866872561233039
22.3003003003003,0.827999318202587,0.7909388767012171,0.8667962735670824
22.458458458458455,0.8280173605765153,0.7910353049338787,0.8667283813247858
22.616616616616614,0.8280417197402744,0.7911362204981218,0.8666688136193845
22.774774774774773,0.8280721775237454,0.7912412715926084,0.8666174981099445
22.932932932932932,0.8281085158626598,0.7913501080155414,0.8665743608273939
23.09109109109109,0.8281505167828017,0.7914623813054207,0.8665393259960418
23.249249249249246,0.82819796238479,0.7915777448872499,0.8665123158509433
23.407407407407405,0.8282506348294353,0.7916958542237869,0.866493250451521
23.565565565565564,0.8283083163236774,0.7918163669713868,0.8664820474919004
23.723723723723722,0.828370789107096,0.7919389431399263,0.8664786221084596
23.88188188188188,0.8284378354389973,0.792063245256265,0.8664828866851433
24.04004004004004,0.828509237586076,0.7921889385306525,0.8664947506571383
24.198198198198195,0.8285847778106501,0.7923156910254374,0.8665141203135437
24.356356356356354,0.8286642383594742,0.7924431738254116,0.8665408985997215
24.514514514514513,0.8287474014531196,0.7925710612090592,0.866574984920037
24.67267267267267,0.8288340492759345,0.792699030819977,0.866616274941748
24.83083083083083,0.8289239639665735,0.792826763837672,0.8666646604008202
24.988988988988986,0.8290169276091035,0.7929539451469425,0.8667200289104805
25.147147147147145,0.8291127222246811,0.7930802635050056,0.8667822637733343
25.305305305305303,0.8292111297638045,0.7932054117055385,0.8668512437978921
25.463463463463462,0.8293119320991398,0.793329086738782,0.8669268431203572
25.62162162162162,0.8294149110189191,0.7934509899468517,0.8670089310325285
25.779779779779776,0.8295198482209156,0.7935708271734173,0.8670973718166699
25.937937937937935,0.8296265253069938,0.7936883089069126,0.8671920245881821
26.096096096096094,0.8297347237782297,0.7938031504164562,0.8672927431468943
26.254254254254253,0.8298442250306122,0.7939150718797081,0.8673993758377703
26.41241241241241,0.8299548103513165,0.7940237985018944,0.8675117654217845
26.570570570570567,0.8300662609155566,0.7941290606253,0.867629748957687
26.728728728728726,0.8301783577840119,0.7942305938285541,0.8677531576953224
26.886886886886884,0.8302908819008331,0.7943281390151076,0.8678818169811201
27.045045045045043,0.830403614156842,0.7944214425641944,0.868015546230707
27.203203203203202,0.8305163865580026,0.794510314646238,0.8681542021873959
27.36136136136136,0.8306291742741426,0.7945947325109691,0.8682977585002045
27.519519519519516,0.8307419773073421,0.7946747036531607,0.8684462078482414
27.677677677677675,0.8308547956596815,0.7947502373071021,0.86859954117125
27.835835835835834,0.8309676293332412,0.7948213444269941,0.8687577476892121
27.993993993993993,0.8310804783301013,0.7948880376642399,0.8689208149250561
28.15215215215215,0.8311933426523429,0.7949503313417348,0.8690887287303706
28.310310310310307,0.8313062223020479,0.7950082414252608,0.8692614733140093
28.468468468468465,0.8314191172812971,0.7950617854921123,0.8694390312734623
28.626626626626624,0.8315320275921728,0.7951109826970876,0.8696213836288679
28.784784784784783,0.8316449532367568,0.7951558537359869,0.8698085098595129
28.942942942942942,0.8317578942171313,0.795196420806767,0.8700003879426783
29.1011011011011,0.8318708505353795,0.7952327075685129,0.8701969943946701
29.259259259259256,0.8319838221935837,0.7952647390983847,0.8703983043138681
29.417417417417415,0.8320968091938283,0.7952925418467147,0.8706042914256339
29.575575575575574,0.8322098115381956,0.79531614359042,0.8708149281288919
29.733733733733732,0.8323228292287697,0.7953355733849129,0.8710301855442255
29.89189189189189,0.8324358622676349,0.7953508615146776,0.8712500335632979
30.050050050050046,0.832548910656876,0.7953620394426936,0.8714744408994289
30.208208208208205,0.832661974398577,0.7953691397588805,0.8717033751391478
30.366366366366364,0.8327750534948225,0.7953721961277411,0.8719368027945525
30.524524524524523,0.8328881479476985,0.7953712432353736,0.8721746893563015
30.68268268268268,0.83300125775929,0.7953663167360143,0.8724169993470627
30.840840840840837,0.8331143829316826,0.7953574531982881,0.8726636963752692
30.998998998998996,0.8332275234669637,0.7953446900513174,0.8729147431890115
31.157157157157155,0.8333406793672181,0.7953280655308388,0.8731701017299119
31.315315315315313,0.8334538506345327,0.7953076186254923,0.8734297331868464
31.473473473473472,0.8335670372709949,0.7952833890234043,0.8736935980493565
31.631631631631627,0.8336802392786921,0.7952554170592088,0.8739616561606283
31.789789789789786,0.8337934566597115,0.7952237436616317,0.8742338667699077
31.947947947947945,0.8339066894161402,0.7951884103017548,0.8745101885842366
32.106106106106104,0.834019937550067,0.7951494589420733,0.8747905798193988
32.26426426426426,0.8341332010635799,0.7951069319864423,0.8750749982499696
32.42242242242242,0.8342464799587679,0.7950608722310135,0.8753634012583807
32.58058058058058,0.8343597742377197,0.7950113228162442,0.8756557458829117
32.73873873873874,0.8344730839025244,0.7949583271800547,0.8759519888645312
32.89689689689689,0.834586408955271,0.7949019290122069,0.8762520866925189
33.05505505505505,0.8346997493980499,0.7948421722099641,0.8765559956488091
33.21321321321321,0.8348131052329517,0.7947791008350815,0.876863671850997
33.37137137137137,0.8349264764620654,0.7947127590721754,0.877175071293966
33.529529529529526,0.8350398630874818,0.7946431911885153,0.8774901498901033
33.687687687687685,0.8351532651112926,0.7945704414952602,0.8778088635080614
33.845845845845844,0.8352666825355884,0.7944945543101654,0.8781311680100473
34.004004004004,0.8353801153624608,0.7944155739217847,0.8784570192876243
34.16216216216216,0.8354935635940025,0.7943335445551728,0.8787863732960108
34.32032032032032,0.8356070272323033,0.7942485103390895,0.8791191860868673
34.47847847847848,0.835720506279457,0.794160515274724,0.8794554138395869
34.63663663663663,0.8358340007375561,0.7940696032059102,0.8797950128910678
34.79479479479479,0.8359475106086939,0.793975817790842,0.8801379397640046
34.95295295295295,0.8360610358949624,0.7938792024752647,0.8804841511936907
35.11111111111111,0.836174576598455,0.7937798004671336,0.8808336041533665
35.269269269269266,0.8362881327212667,0.7936776547127096,0.8811862558781239
35.427427427427425,0.8364017042654909,0.7935728078740683,0.8815420638873904
35.585585585585584,0.8365152912332217,0.7934653023080026,0.881900986006032
35.74374374374374,0.8366288936265545,0.7933551800462812,0.8822629803840952
35.9019019019019,0.8367425114475825,0.79324248277723,0.88262800551522
36.06006006006006,0.8368561446984021,0.7931272518286119,0.8829960202537689
36.21821821821822,0.8369697933811084,0.7930095281517533,0.8833669838306931
36.37637637637637,0.8370834574977973,0.7928893523068948,0.8837408558681857
36.53453453453453,0.8371971370505649,0.7927667644497182,0.8841175963931537
36.69269269269269,0.8373108320415067,0.7926418043190121,0.8844971658495504
36.85085085085085,0.8374245424727211,0.7925145112254425,0.8848795251096127
37.009009009009006,0.8375382683463031,0.7923849240413711,0.8852646354840285
37.167167167167165,0.8376520096643504,0.7922530811917051,0.8856524587311019
37.32532532532532,0.83776576642896,0.7921190206457128,0.8860429570649286
37.48348348348348,0.83787953864223,0.7919827799097814,0.8864360931626434
37.64164164164164,0.8379933263062587,0.7918443960210654,0.8868318301707678
37.7997997997998,0.8381071294231441,0.791703905541993,0.8872301317107063
37.95795795795796,0.838220947994985,0.7915613445555849,0.8876309618834256
38.11611611611611,0.8383347820238795,0.7914167486615501,0.8880342852733593
38.27427427427427,0.838448631511929,0.7912701529731199,0.8884400669515814
38.43243243243243,0.8385624964612305,0.7911215921145716,0.8888482724782647
38.59059059059059,0.838676376873884,0.7909711002194287,0.8892588679044989
38.748748748748746,0.8387902727519897,0.7908187109292756,0.8896718197734687
38.906906906906904,0.8389041840976482,0.7906644573931659,0.8900870951210457
39.06506506506506,0.8390181109129594,0.7905083722675869,0.8905046614758226
39.22322322322322,0.8391320532000259,0.790350487716949,0.8909244868586303
39.38138138138138,0.839246010960947,0.7901908354145604,0.8913465397815515
39.53953953953954,0.8393599841978246,0.7900294465440691,0.8917707892464903
39.69769769769769,0.83947397291276,0.789866351801329,0.8921972047432996
39.85585585585585,0.8395879771078575,0.7897015813966716,0.8926257562475173
40.01401401401401,0.839701996785217,0.7895351650575433,0.8930564142177139
40.17217217217217,0.8398160319469415,0.7893671320314994,0.8934891495925141
40.33033033033033,0.8399300825951332,0.7891975110895122,0.8939239337872802
40.488488488488485,0.8400441487318969,0.7890263305295793,0.8943607386905106
40.646646646646644,0.8401582303593342,0.7888536181806003,0.8947995366599523
40.8048048048048,0.8402723274795504,0.788679401406512,0.89524030051848
40.96296296296296,0.8403864400946494,0.7885037071106462,0.895683003549727
41.12112112112112,0.8405005682067336,0.7883265617402977,0.8961276194935169
41.27927927927928,0.8406147118179101,0.7881479912914908,0.8965741225411118
41.43743743743743,0.8407288709302826,0.787968021313903,0.8970224873302691
41.59559559559559,0.8408430455459558,0.7877866769159554,0.8974726889401634
41.75375375375375,0.8409572356670352,0.7876039827700356,0.8979247028861611
41.91191191191191,0.8410714412956267,0.7874199631178436,0.8983785051144744
42.07007007007007,0.8411856624338363,0.7872346417758448,0.8988340719967077
