dose,RR,lb,ub
0,1,1,1
0.07307307307307308,0.9965715153390301,0.9949920843020184,0.9981534535340787
0.14614614614614616,0.9931553411620241,0.9900100718783571,0.9963106029893507
0.21921921921921922,0.989751985522956,0.9850546446822553,0.9944717261473569
0.2922922922922923,0.9863619490611537,0.9801264690022163,0.9926370987064098
0.3653653653653654,0.9829857250733193,0.9752261956764643,0.9908069942970242
0.43843843843843844,0.9796237995880193,0.9703544603116808,0.9889816844980763
0.5115115115115115,0.9762766514425747,0.9655118835058064,0.9871614388536883
0.5845845845845846,0.9729447523622841,0.9606990710746992,0.985346524890833
0.6576576576576577,0.969628567041912,0.9559166142824449,0.9835372081376511
0.7307307307307308,0.9663285532293797,0.9511650900751193,0.9817337521424794
0.8038038038038039,0.9630451618115915,0.94644506131781,0.9799364184935832
0.8768768768768769,0.9597788369023359,0.9417570770347082,0.9781454668395881
0.94994994994995,0.9565300159321997,0.9371016726520864,0.9763611549106085
1.023023023023023,0.9532991297404345,0.9324793702439853,0.9745837385400662
1.0960960960960962,0.9500866026687178,0.9278906787804354,0.972813471687198
1.1691691691691692,0.94689285265675,0.9233360943780469,0.9710506064602463
1.2422422422422423,0.943718291339633,0.9188161005528049,0.9692953931403305
1.3153153153153154,0.9405633241469744,0.9143311684749129,0.9675480802059953
1.3883883883883885,0.9374283504036651,0.9098817572255332,0.9658089143584343
1.4614614614614616,0.9343137634322788,0.9054683140552781,0.9640781405473852
1.5345345345345347,0.931219950657042,0.9010912746443093,0.9623560019976942
1.6076076076076078,0.9281472937093278,0.8967510633639123,0.9606427402365504
1.6806806806806809,0.925096168534624,0.8924480935394125,0.9589385951213837
1.7537537537537538,0.9220669455009324,0.8881827677143089,0.9572438048684316
1.8268268268268268,0.919059989508553,0.8839554779155064,0.9555586060819685
1.8998998998999,0.9160756601012117,0.8797666059195293,0.9538832337842003
1.972972972972973,0.9131143115784899,0.8756165235196077,0.9522179214458241
2.046046046046046,0.9101762931095176,0.8715055927935333,0.9505629010172538
2.1191191191191194,0.9072619488478909,0.8674341663721814,0.9489184029605114
2.1921921921921923,0.9043716180477779,0.863402587708609,0.9472846562817879
2.2652652652652656,0.9015056351811791,0.8594111913476351,0.9456618885646741
2.3383383383383385,0.8986643300563083,0.8554603031958224,0.944050326004066
2.4114114114114114,0.8958480279370629,0.8515502407917777,0.942450193440746
2.4844844844844847,0.8930570496635544,0.8476813135766973,0.940861714396646
2.5575575575575575,0.8902917117736695,0.8438538231650882,0.9392851111107968
2.630630630630631,0.8875523266256364,0.8400680636155975,0.9377206045759674
2.7037037037037037,0.8848392025215712,0.8363243217018911,0.9361684145760025
2.776776776776777,0.8821526438319806,0.8326228771835248,0.9346287597238643
2.84984984984985,0.8794929511211997,0.8289640030767562,0.933101857500386
2.922922922922923,0.8768604212737457,0.8253479659252516,0.9315879242937463
2.995995995995996,0.8742553476215671,0.8217750260706421,0.9300871754396728
3.0690690690690694,0.871678020072174,0.8182454379228948,0.9285998252623868
3.1421421421421423,0.869128725237634,0.8147594502304615,0.927126087116299
3.2152152152152156,0.8666077465644194,0.8113173063501766,0.925666173428469
3.2882882882882885,0.8641153644640956,0.8079192445168798,0.9242202957418428
3.3613613613613618,0.8616518564448404,0.8045654981127381,0.9227886647592817
3.4344344344344346,0.8592174972437853,0.8012562959362544,0.9213714903883982
3.5075075075075075,0.8568125589601735,0.7979918624709449,0.9199689817872179
3.580580580580581,0.8544373111893298,0.7947724181536769,0.9185813474106832
3.6536536536536537,0.8520920211574384,0.7915981796426624,0.91720879505802
3.726726726726727,0.8497769538571289,0.7884693600851006,0.9158515319209887
3.7997997997998,0.8474923721838695,0.785386169384476,0.9145097646330405
3.872872872872873,0.8452385370731706,0.7823488144675107,0.9131836993194068
3.945945945945946,0.8430157076386035,0.7793574995507837,0.9118735416481445
4.019019019019019,0.8408241413106373,0.7764124264070246,0.9105794968821667
4.092092092092092,0.8386640930684749,0.773513793388166,0.9093017694248245
4.165165165165165,0.8365356435229819,0.7706615604184767,0.9080404665628007
4.238238238238239,0.8344384977188183,0.7678551756991604,0.9067954850226058
4.311311311311312,0.8323723155755175,0.7650940295743068,0.9055666950140003
4.384384384384385,0.8303367617111627,0.7623775227320048,0.9043539680685767
4.4574574574574575,0.8283315053603048,0.7597050659961357,0.9031571770194813
4.530530530530531,0.8263562202933182,0.7570760801222791,0.9019761959817384
4.603603603603604,0.8244105847371623,0.7544899955976646,0.9008109003331278
4.676676676676677,0.8224942812975221,0.7519462524451053,0.8996611666955732
4.74974974974975,0.8206069968822994,0.7494443000308424,0.8985268729170045
4.822822822822823,0.8187484226264277,0.7469835968762316,0.8974078980536624
4.8958958958958965,0.8169182538179824,0.7445636104731972,0.8963041223528141
4.968968968968969,0.8151161898255639,0.7421838171033831,0.8952154272358576
5.042042042042042,0.8133419340269228,0.7398437016609263,0.8941416952817896
5.115115115115115,0.8115951937388072,0.7375427574787802,0.8930828102110175
5.188188188188189,0.8098756801480049,0.735280486158515,0.8920386568694985
5.261261261261262,0.8081831082435568,0.7330563974035215,0.8910091212131871
5.334334334334335,0.8065171967501182,0.730870008855548,0.8899940902927793
5.407407407407407,0.8048776680624472,0.7287208459344984,0.8889934522387375
5.480480480480481,0.8032642481809931,0.7266084416814215,0.8880070962465861
5.553553553553554,0.8016766666485682,0.7245323366046211,0.8870349125624662
5.626626626626627,0.8001146564880777,0.7224920785288219,0.8860767924689379
5.6996996996997,0.7985779541412885,0.7204872224473196,0.8851326282710239
5.772772772772774,0.7970662994086158,0.7185173303770536,0.8842023132824837
5.845845845845846,0.7955794353899078,0.7165819712165346,0.8832857418123105
5.918918918918919,0.7941171084262076,0.7146807206065658,0.8823828091514457
5.991991991991992,0.7926790680424756,0.712813160793694,0.8814934115597017
6.065065065065065,0.7912650668912502,0.710978880496329,0.8806174462528883
6.138138138138139,0.7898748606972318,0.7091774747734751,0.8797548113901357
6.211211211211212,0.7885082082027688,0.7074085448960121,0.8789054060614104
6.2842842842842845,0.7871648711142308,0.7056716982204703,0.8780691302752167
6.357357357357357,0.7858446140492497,0.7039665480652445,0.8772458849464799
6.430430430430431,0.7845472044848126,0.7022927135891905,0.8764355718846064
6.503503503503504,0.7832724127061906,0.7006498196725522,0.8756380937817164
6.576576576576577,0.7820200117566859,0.6990374968001656,0.874853354201045
6.64964964964965,0.780789777388182,0.6974553809468891,0.8740812575655073
6.7227227227227235,0.7795814880124821,0.6959031134652113,0.8733217091464234
6.795795795795796,0.7783949246534198,0.6943803409749854,0.8725746150524013
6.868868868868869,0.7772298708997272,0.6928867152552443,0.8718398822183717
6.941941941941942,0.7760861128586463,0.6914218931380489,0.8711174183947724
7.015015015015015,0.7749634391102692,0.6899855364043255,0.8704071321368801
7.088088088088089,0.7738616406625934,0.6885773116816452,0.8697089327942844
7.161161161161162,0.7727805109072782,0.6871968903439054,0.8690227305005008
7.2342342342342345,0.7717198455760891,0.6858439484128697,0.8683484361627231
7.307307307307307,0.770679442698017,0.6845181664615231,0.8676859614517067
7.380380380380381,0.7696591025570607,0.6832192295192063,0.8670352187917852
7.453453453453454,0.768658627650657,0.6819468269784861,0.8663961213510138
7.526526526526527,0.76767782264875,0.6807006525037254,0.865768583031438
7.5995995995996,0.766716494353485,0.6794804039413156,0.8651525184594853
7.6726726726726735,0.7657744516595166,0.6782857832315348,0.8645478429764767
7.745745745745746,0.7648515055149188,0.6771164963219947,0.8639544726292552
7.818818818818819,0.7639474688826858,0.6759722530826446,0.8633723241609284
7.891891891891892,0.7630621567028136,0.674852767222296,0.862801315001724
7.964964964964966,0.762195385854951,0.6737577562066362,0.8622413632599536
8.038038038038039,0.7613469751216081,0.672686941177699,0.8616923877130844
8.111111111111112,0.7605167451519154,0.671640046874759,0.8611543077989141
8.184184184184184,0.759704518425919,0.670616801556624,0.860627043606848
8.257257257257258,0.7589101192194069,0.6696169369252887,0.8601105158692757
8.33033033033033,0.758133373569252,0.6686401880509284,0.859604645953044
8.403403403403404,0.7573741092392663,0.667686293298197,0.8591093558510244
8.476476476476478,0.7566321556865547,0.6667549942538088,0.8586245681737725
8.54954954954955,0.7559073440283599,0.6658460356553721,0.8581502061412764
8.622622622622623,0.7551995070093902,0.6649591653214509,0.8576861935747918
8.695695695695695,0.7545084789696213,0.6640941340828299,0.8572324548887625
8.76876876876877,0.7538340958125624,0.6632506957149555,0.8567889150828218
8.841841841841843,0.7531761949739815,0.6624286068715327,0.8563554997338735
8.914914914914915,0.7525346153910768,0.6616276270192496,0.8559321349882498
8.987987987987989,0.7519091974720915,0.6608475183736122,0.8555187475539441
9.061061061061062,0.7512997830663619,0.6600880458358623,0.8551152646929151
9.134134134134134,0.7507062154347895,0.6593489769309608,0.8547216142134607
9.207207207207208,0.7501283392207339,0.6586300817466133,0.8543377244626584
9.28028028028028,0.7495660004213142,0.6579311328733183,0.85396352431887
9.353353353353354,0.7490190463591176,0.6572519053454186,0.8535989431843078
9.426426426426428,0.7484873256543024,0.6565921765831362,0.8532439109776605
9.4994994994995,0.7479706881970932,0.6559517263355725,0.8528983581267746
9.572572572572573,0.747468985120659,0.6553303366246552,0.8525622155613906
9.645645645645645,0.7469820687743691,0.6547277916900144,0.8522354147059287
9.71871871871872,0.7465097926974198,0.6541438779347715,0.8519178874723246
9.791791791791793,0.7460520115928262,0.6535783838722238,0.8516095662529101
9.864864864864865,0.7456085813017725,0.6530311000734089,0.8513103839133361
9.937937937937939,0.7451793587783159,0.6525018191155334,0.8510202737855367
10.011011011011012,0.7447642020644363,0.6519903355312507,0.850739169660729
10.084084084084084,0.7443629702654293,0.651496445758774,0.8504670057824493
10.157157157157158,0.7439755235256341,0.6510199480928088,0.8502037168396182
10.23023023023023,0.7436017230044923,0.6505606426362944,0.8499492379596364
10.303303303303304,0.7432414308529327,0.6501183312529372,0.849703504701505
10.376376376376378,0.7428945101900747,0.6496928175205258,0.8494664530489674
10.44944944944945,0.74256082508025,0.649283906685016,0.8492380194036722
10.522522522522523,0.7422402405103318,0.6488914056153713,0.8490181405783512
10.595595595595595,0.741932622367371,0.6485151227591494,0.8488067537900108
10.66866866866867,0.7416378374165338,0.648154868098824,0.8486037966531335
10.741741741741743,0.7413557532793351,0.64781045310883,0.8484092071728857
10.814814814814815,0.7410862384121637,0.6474816907133221,0.8482229237383287
10.887887887887889,0.7408291620850963,0.647168395244638,0.8480448851156304
10.960960960960962,0.7405843943609945,0.646870382402457,0.8478750304412731
11.034034034034034,0.7403518060748806,0.6465874692136417,0.847713299215254
11.107107107107108,0.7401312688135896,0.6463194739927598,0.84755963129427625
11.18018018018018,0.739922654895693,0.6460662163032722,0.8474139668849263
11.253253253253254,0.7397258373516891,0.6458275169193831,0.8472762465368323
11.326326326326328,0.7395406899044589,0.6456031977885436,0.8471464111358035
11.3993993993994,0.7393670869499803,0.6453930819945997,0.8470244018969421
11.472472472472473,0.7392049035383024,0.6451969937215822,0.8469101603577307
11.545545545545547,0.7390540153547693,0.6450147582181278,0.8468036283710831
11.618618618618619,0.7389142987014972,0.6448462017625265,0.8467047480983618
11.691691691691693,0.7387856304790972,0.6446911516283911,0.8466134620023548
11.764764764764765,0.7386678881686417,0.6445494360509413,0.8465297128402074
11.837837837837839,0.7385609498138717,0.6444208841938981,0.8464534436563086
11.910910910910912,0.7384646940036417,0.6443053261169834,0.8463845977751225
11.983983983983984,0.7383789998546001,0.6442025927440214,0.8463231187939664
12.057057057057058,0.7383037469941001,0.644112515831634,0.8462689505757267
12.13013013013013,0.7382388155433413,0.6440349279385323,0.8462220372415123
12.203203203203204,0.7381840861007373,0.6439696623953938,0.8461823231632385
12.276276276276278,0.7381394397255072,0.643916553275327,0.8461497529561378
12.34934934934935,0.7381047579214888,0.6438754353649173,0.8461242714711954
12.422422422422423,0.7380799226211707,0.6438461441358538,0.846105823787502
12.495495495495497,0.7380648161699419,0.6438285157171312,0.8460943552045215
12.568568568568569,0.7380593213105547,0.6438223868678277,0.8460898112342686
12.641641641641643,0.7380633211678005,0.6438275949504555,0.8460921375933925
12.714714714714715,0.738076699233396,0.6438439779048808,0.8461012801951614
12.787787787787789,0.7380993393510771,0.6438713742228142,0.8461171851413439
12.860860860860862,0.7381311257018985,0.6439096229228676,0.8461397987139829
12.933933933933934,0.7381719427897386,0.6439585635261795,0.8461690673670571
13.007007007007008,0.7382216754270057,0.6440180360326035,0.8462049377180269
13.08008008008008,0.7382802087205442,0.6440878808974633,0.8462473565392574
13.153153153153154,0.7383474280577419,0.6441679390088713,0.8462962707493187
13.226226226226228,0.7384232190928313,0.6442580516656117,0.8463516274041533
13.2992992992993,0.7385074677333888,0.6443580605555866,0.8464133736881112
13.372372372372373,0.7386000601270268,0.6444678077348261,0.8464814569048457
13.445445445445447,0.7387008826482782,0.6445871356070619,0.8465558244680657
13.518518518518519,0.7388098218856719,0.6447158869038654,0.8466364238921406
13.591591591591593,0.7389267646289995,0.6448539046653499,0.8467232027825541
13.664664664664665,0.7390515978567671,0.6450010322214376,0.8468161088262007
13.737737737737739,0.7391842087238377,0.6451571131736926,0.8469150897815231
13.810810810810812,0.7393244845492575,0.6453219913777206,0.8470200934684843
13.883883883883884,0.7394723128042667,0.6454955109261337,0.8471310677583715
13.956956956956958,0.7396275811004961,0.6456775161320867,0.8472479605634289
14.03003003003003,0.7397901771783433,0.6458678515133788,0.8473707198263107
14.103103103103104,0.7399599888955335,0.6460663617771286,0.8474992935093583
14.176176176176178,0.740136904215859,0.6462728918050185,0.8476336295836906
14.24924924924925,0.7403208111980983,0.6464872866391098,0.8477736760181078
14.322322322322323,0.7405115979851169,0.6467093914682365,0.8479193807678055
14.395395395395397,0.7407091527931431,0.6469390516149678,0.8480706917628933
14.468468468468469,0.7409133639012226,0.647176112523149,0.8482275568967171
14.541541541541543,0.7411241196408499,0.6474204197460188,0.8483899240139813
14.614614614614615,0.7413413083857764,0.6476718189349058,0.8485577408986682
14.687687687687689,0.7415648185419929,0.6479301558285,0.8487309552617521
14.760760760760762,0.7417945385378857,0.6481952762427066,0.8489095147287047
14.833833833833834,0.7420303568145724,0.6484670260610818,0.84909336682679315
14.906906906906908,0.7422721618164057,0.6487452512258455,0.8492824589721639
14.979979979979982,0.7425198419816523,0.6490297977294781,0.8494767384567139
15.053053053053054,0.742773285733349,0.6493205116069021,0.8496761524347489
15.126126126126128,0.7430323814703251,0.64961723892824,0.8498806479094226
15.1991991991992,0.7432970175584018,0.6499198257921598,0.8500901717189622
15.272272272272273,0.7435670823217633,0.6502281183198031,0.8503046705226762
15.345345345345347,0.7438424640344974,0.6505419626492919,0.8505240907867435
15.418418418418419,0.7441230509123108,0.6508612049308197,0.8507483787697878
15.491491491491493,0.7444087311044133,0.6511856913223234,0.8509774805082331
15.564564564564565,0.7446993926855768,0.6515152679857361,0.8512113418014458
15.637637637637638,0.7449949236483623,0.6518497810838163,0.8514499081966613
15.710710710710712,0.7452952118955187,0.6521890767775546,0.8516931249736973
15.783783783783784,0.7456001452325568,0.6525330012241599,0.8519409371294598
15.856856856856858,0.7459096113604892,0.6528814005756132,0.8521932893622369
15.929929929929932,0.7462234978687438,0.6532341209777933,0.85245012605579
16.003003003003005,0.7465416922282514,0.6535910085701747,0.852711391263245
16.076076076076077,0.7468640817846991,0.6539519094860821,0.8529770286907824
16.14914914914915,0.7471905537519605,0.6543166698535111,0.8532469816811371
16.222222222222225,0.7475209952056969,0.6546851357965068,0.8535211931969101
16.295295295295297,0.7478552930771245,0.6550571534370838,0.8537996058036936
16.36836836836837,0.7481933341469654,0.6554325688977101,0.8540821616530268
16.44144144144144,0.7485350050395587,0.6558112283043154,0.854368802465173
16.514514514514516,0.7488801922171526,0.6561929777898465,0.8546594695117405
16.58758758758759,0.749228781974367,0.6565776634983473,0.8549541035981444
16.66066066066066,0.7495806604328277,0.6569651315895612,0.8552526450459216
16.733733733733736,0.7499357135359772,0.6573552282440492,0.8555550336749094
16.806806806806808,0.750293827044058,0.6577477996688154,0.8558612087852928
16.87987987987988,0.7506548865292705,0.6581426921034291,0.8561711091395341
16.952952952952955,0.7510187773711048,0.6585397518266382,0.8564846729441943
17.026026026026027,0.7513853847518505,0.6589388251634614,0.8568018378316566
17.0990990990991,0.751754593652279,0.6593397584927511,0.8571225408417661
17.172172172172175,0.7521262888475043,0.6597423982552146,0.8574467184033948
17.245245245245247,0.7525003549030188,0.6601465909618841,0.8577743063159499
17.31831831831832,0.7528766761709084,0.6605521832030224,0.8581052397308333
17.39139139139139,0.7532551367862422,0.6609590216574519,0.8584394531328712
17.464464464464466,0.7536356206636436,0.6613669531022957,0.858776880321727
17.53753753753754,0.7540180114940386,0.661775824423116,0.8591174543933139
17.61061061061061,0.7544021927415828,0.662185482624435,0.8594611077212211
17.683683683683686,0.7547880476407705,0.6625957748406253,0.8598077719381738
17.756756756756758,0.7551754591937215,0.6630065483471543,0.8601573779175419
17.82982982982983,0.755564310167652,0.6634176505721658,0.8605098557549162
17.902902902902905,0.7559544830925251,0.6638289291083856,0.8608651347497714
17.975975975975977,0.756345860258884,0.6642402317253283,0.8612231433872329
18.04904904904905,0.7567383237158698,0.6646514063817978,0.8615838093199698
18.122122122122125,0.7571317552694199,0.6650623012386506,0.8619470593502315
18.195195195195197,0.7575260364806548,0.6654727646718204,0.8623128194120517
18.26826826826827,0.7579210486644461,0.6658826452855674,0.8626810145536381
18.34134134134134,0.7583166728881724,0.6662917919259483,0.8630515689199693
18.414414414414416,0.7587127899706604,0.6667000536944776,0.8634244057356247
18.48748748748749,0.7591092804813147,0.6671072799619672,0.8637994472878664
18.56056056056056,0.7595060293315855,0.66751332590951,0.8641766182046687
18.633633633633636,0.7599029867098188,0.6679181257881251,0.8645558892852697
18.706706706706708,0.7603001515586375,0.6683216727113404,0.86493726608468
18.77977977977978,0.7606975239864757,0.6687239612676674,0.8653207549228771
18.852852852852855,0.7610951041018251,0.6691249861172428,0.8657063620491824
18.925925925925927,0.7614928920132346,0.6695247419928276,0.8660940936412649
18.998998998999,0.7618908878293085,0.6699232237007909,0.866483955804153
19.072072072072075,0.7622890916587092,0.6703204261220821,0.8668759545692704
19.145145145145147,0.7626875036101548,0.6707163442131822,0.8672700958934785
19.21821821821822,0.7630861237924211,0.671110973007045,0.8676663856581429
19.29129129129129,0.7634849523143403,0.6715043076140146,0.8680648296682125
19.364364364364366,0.7638839892848016,0.6718963432227314,0.868465433651316
19.43743743743744,0.7642832348127505,0.6722870751010163,0.8688682032568782
