dose,RR,lb,ub
0,1,1,1
0.33353353353353354,0.9961926890095272,0.99341230170477135,0.9989808581321156
0.6670670670670671,0.99240319392715,0.9868744159174907,0.9979629458741079
1.0006006006006007,0.9886347293555398,0.9803923016703667,0.9969464533969056
1.3341341341341342,0.9848904602537671,0.9739717524582142,0.9959315721946393
1.6676676676676676,0.9811735026843175,0.9676183989918896,0.994918496147655
2.0012012012012015,0.9774869246597027,0.9613377122958863,0.9939074226046795
2.334734734734735,0.973833747085927,0.9551350071235226,0.9928985534929426
2.6682682682682684,0.970216944800144,0.9490154456635619,0.9918920964654518
3.001801801801802,0.9666394476999316,0.9429840415124277,0.9908882660951313
3.335335335335335,0.9631041419617127,0.9370456638864263,0.9898872851261942
3.668868868868869,0.9596138713459529,0.9312050420485276,0.9888893857939169
4.002402402402403,0.9561714385868825,0.9254667699242721,0.9878948112249558
4.335935935935936,0.9527796068646077,0.9198353108812498,0.986903816931498
4.66946946946947,0.9494411013576061,0.9143150026462916,0.9859166724139066
5.003003003003003,0.9461586108737329,0.9089100623340164,0.9849336628881197
5.336536536536537,0.9429347895580084,0.903624591559632,0.9839550911559386
5.670070070070071,0.9397722586755972,0.8984625816078625,0.9829812796385298
6.003603603603604,0.9366736084685513,0.8934279186285208,0.9820125725960152
6.3371371371371374,0.9336414000850376,0.8885243888274927,0.9810493385589976
6.67067067067067,0.9306781675799439,0.8837556836196957,0.9800919730013248
7.004204204204204,0.9277864199859196,0.8791254047078217,0.9791409012874254
7.337737737737738,0.9249686434540887,0.8746370690472902,0.9781965819322459
7.671271271271271,0.9222272562487914,0.8702940279505487,0.9772595063889153
8.004804804804806,0.9195629393055915,0.8660964476121376,0.9763300630959529
8.338338338338339,0.9169742118046331,0.8620405900822361,0.9754084839955324
8.671871871871872,0.9144594830015617,0.8581225620303387,0.9744949999600623
9.005405405405405,0.9120171910669308,0.8543385655451835,0.9735898510806771
9.33893893893894,0.9096458020776524,0.8506848942618739,0.9726932861026831
9.672472472472473,0.9073438090380166,0.8471579295243964,0.9718055619945751
10.006006006006006,0.9051097309293362,0.843754136613214,0.9709269436133342
10.33953953953954,0.9029421117873113,0.8404700610581158,0.9700577034385923
10.673073073073073,0.9008395198062437,0.8373023250500172,0.9691981213551116
11.006606606606606,0.89880054646927,0.8342476239609199,0.968348484467846
11.340140140140141,0.8968238057038138,0.831302722978153,0.9675090869372855
11.673673673673674,0.8949079330614933,0.828464453856873,0.9666802298252284
12.007207207207207,0.8930515849217486,0.8257297117933318,0.9658622209428989
12.340740740740742,0.8912534377184894,0.8230954524204335,0.965055374694603
12.674274274274275,0.8895121871890879,0.8205586889264346,0.9642600119110445
13.007807807807808,0.8878265476450733,0.8181164892972331,0.9634764596670933
13.34134134134134,0.8861952512639119,0.8157659736824484,0.9627050510792895
13.674874874874876,0.88461704740128,0.8135043118853702,0.9619461250787152
14.008408408408409,0.8830907019232686,0.811328720976829,0.9612000261551238
14.341941941941942,0.8816149965579746,0.8092364630330595,0.9604671040684002
14.675475475475476,0.8801887282659676,0.807224842997701,0.9597477135235638
15.00900900900901,0.8788107086291326,0.8052912066681598,0.9590422138056289
15.342542542542542,0.877479763257422,0.8034329388066593,0.9583509683707275
15.676076076076077,0.876194731213063,0.8016474613763955,0.9576743443899803
16.009609609609612,0.8749544644517911,0.7999322319033,0.9570127122426838
16.343143143143145,0.8737578272807007,0.798284741963976,0.9563664449554806
16.676676676676678,0.8726036958323189,0.7967025158004132,0.9557359175842924
17.01021021021021,0.8714909575545319,0.7951831090620909,0.9551215065359373
17.343743743743744,0.8704185107160064,0.7937241076760475,0.9545235888265233
17.677277277277277,0.8693852639267705,0.7923231268454177,0.9539425412739253
18.01081081081081,0.8683901356736279,0.7909778101768147,0.9533787396218998
18.344344344344346,0.8674320538701036,0.7896858289367537,0.9528325575936979
18.67787787787788,0.866509955420628,0.788444881437081,0.9523043658733888
19.011411411411412,0.8656227857986826,0.7872526925490756,0.951794531013512
19.344944944944945,0.8647694986386473,0.7861070133455287,0.9513034142681472
19.67847847847848,0.8639490553410991,0.7850056208696906,0.9508313703510153
20.01201201201201,0.8631604246913276,0.7839463180294783,0.9503787461188095
20.345545545545548,0.8624025824908448,0.7829269336147886,0.9499458791806086
20.67907907907908,0.8616745112016782,0.7819453224351468,0.9495330964349252
21.012612612612614,0.8609751996032488,0.7809993655742438,0.9491407125367071
21.346146146146147,0.8603036424616456,0.7800869707571862,0.9487690282974219
21.67967967967968,0.8596588402111218,0.7792060728255105,0.9484183290222126
22.013213213213213,0.8590397986476428,0.7783546343141896,0.9480888827890027
22.346746746746746,0.8584455286343331,0.7775306461240229,0.9477809386753525
22.680280280280282,0.8578750458186729,0.7767321282819296,0.9474947249397973
23.013813813813815,0.8573273703613068,0.7759571307808044,0.9472304471653371
23.34734734734735,0.8568015266763361,0.7752037344897345,0.9469882863736665
23.68088088088088,0.8562965431829739,0.7744700521245492,0.9467683971196234
24.014414414414414,0.8558114520684489,0.7737542292678887,0.946570905576183
24.347947947947947,0.8553452890620544,0.7730544454272513,0.9463959076210997
24.681481481481484,0.854897093220243,0.7723689151188428,0.9462434669369969
25.015015015015017,0.8544659067226773,0.7716958889645003,0.9461136131373038
25.34854854854855,0.8540507746791494,0.7710336547885328,0.9460063399309131
25.682082082082083,0.8536507449472948,0.7703805387010273,0.9459216033387833
26.015615615615616,0.8532648679610239,0.7697349061540032,0.9458593199759063
26.34914914914915,0.8528921965696055,0.7690951629568102,0.9458193654121008
26.68268268268268,0.8525317858873417,0.7684597562373235,0.945801572624968
27.01621621621622,0.8521826931537739,0.7678271753358242,0.9458057305580447
27.34974974974975,0.8518439776043701,0.7671959526189699,0.945831582796716
27.683283283283284,0.8515147003516425,0.7665646642019266,0.9458788263738038
28.016816816816817,0.851193924276651,0.7659319305675819,0.9459471107159385
28.35035035035035,0.8508807139308536,0.7652964170727561,0.9460360367408452
28.683883883883883,0.8505741354482613,0.7646568343324536,0.9461451561145767
29.01741741741742,0.8502732564678659,0.7640119384744696,0.946273970676478
29.350950950950953,0.8499771460663051,0.7633605312580138,0.9464219320383372
29.684484484484486,0.8496848747007368,0.7627014600514623,0.9465884413627493
30.01801801801802,0.8493955141618916,0.762033617665835,0.9467728493242442
30.35155155155155,0.8491081375372779,0.7613559420421255,0.9469744562552228
30.685085085085085,0.8488218191845126,0.7606674157921243,0.9471925124772319
31.01861861861862,0.8485357706882687,0.7599672379411901,0.9474263075972915
31.352152152152154,0.8482498185990366,0.7592554161473426,0.947675498193174
31.685685685685687,0.8479639628741539,0.758532182617428,0.9479398485797597
32.019219219219224,0.847678203481146,0.7577977701795502,0.9482191224800914
32.35275275275276,0.8473925403875496,0.7570524119323112,0.9485130833565969
32.68628628628629,0.8471069735609127,0.7562963409227688,0.9488214947331174
33.01981981981982,0.8468215029687934,0.7555297898404356,0.9491441205008949
33.353353353353356,0.8465361285787614,0.7547529907275434,0.9494807252082946
33.68688688688689,0.846250850358397,0.7539661747056856,0.949831074334149
34.02042042042042,0.8459656682752915,0.75316957171885,0.9501949345447108
34.353953953953955,0.8456805822970472,0.7523634102927687,0.9505720739342909
34.68748748748749,0.8453955923912773,0.7515479173104198,0.9509622622497417
35.02102102102102,0.845110698525606,0.7507233178034514,0.951365271099022
35.354554554554554,0.8448259006676682,0.7498898347592208,0.951780874144141
35.68808808808809,0.8445411987851096,0.7490476889430974,0.9522088472788454
36.02162162162162,0.8442565928455872,0.7481970987356138,0.9526489687914531
36.35515515515516,0.8439720828167685,0.7473382799840159,0.9531010195132903
36.68868868868869,0.8436876686663324,0.7464714458677256,0.953564782953216
37.022222222222226,0.8434033503619682,0.7455968067771958,0.9540400454187529
37.35575575575576,0.8431191278713763,0.744714570205622,0.9545265961243627
37.68928928928929,0.842835001162268,0.7438249406529529,0.9550242272874239
38.022822822822825,0.8425509702023652,0.7429281195416292,0.9555327342124771
38.35635635635636,0.8422670349594018,0.7420243051434803,0.956051915364319
38.68988988988989,0.8419831954011205,0.7411136925171938,0.9565815724305138
39.023423423423424,0.8416994514952768,0.7401964734557908,0.9571215103739122
39.35695695695696,0.8414158032096362,0.7392728364435246,0.9576715374757342
39.69049049049049,0.8411322505119749,0.7383429666216454,0.9582314653697933
40.02402402402402,0.8408487933700811,0.737407045762475,0.9588011090684108
40.357557557557556,0.8405654317517511,0.7364652522512456,0.9593802869805563
40.691091091091096,0.8402821656247966,0.7355177610751897,0.95996882092276
41.02462462462463,0.8399989949570354,0.7345647438193443,0.9605665361232766
41.35815815815816,0.8397159197162992,0.7336063686686073,0.9611732612200319
41.691691691691695,0.8394329398704299,0.7326428004155436,0.961788828252796
42.02522522522523,0.8391500553872795,0.7316742004734995,0.9624130726500566
42.35875875875876,0.8388672662347102,0.7307007268945837,0.9630458332110252
42.692292292292294,0.8385845723805979,0.7297225343921031,0.9636869520831949
43.02582582582583,0.8383019737928266,0.7287397743670435,0.9643362747358365
43.35935935935936,0.8380194704392924,0.7277525949382366,0.9649936499298272
43.69289289289289,0.8377370622879008,0.7267611409758403,0.9656589296841508
44.026426426426426,0.8374547493065708,0.7257655541378105,0.9663319692394229
44.35995995995996,0.83717253146323,0.7247659729090291,0.9670126270187395
44.69349349349349,0.8368904087258161,0.7237625326428057,0.9677007645861668
45.02702702702703,0.8366083810622811,0.7227553656044681,0.9683962466031453
45.360560560560565,0.8363264484405845,0.7217446010167691,0.9690989407830579
45.6940940940941,0.8360446108286967,0.7207303651068794,0.9698087178442306
46.02762762762763,0.835762868194602,0.719712781154734,0.97052545146158
46.361161161161164,0.8354812205062917,0.7186919695425064,0.9712490182171133
46.6946946946947,0.8351996677317707,0.7176680478050366,0.9719792975494995
47.02822822822823,0.8349182098390521,0.7166411306810083,0.972716171702871
47.36176176176176,0.8346368467961627,0.7156113301647242,0.9734595256750459
47.695295295295296,0.8343555785711387,0.7145787555583076,0.9742092471653054
48.02882882882883,0.8340744051320248,0.7135435135241992,0.9749652265218827
48.36236236236236,0.8337933264468812,0.7125057081378203,0.9757273566893029
48.695895895895895,0.8335123424837759,0.7114654409402629,0.9764955331556636
49.02942942942943,0.8332314532107867,0.7104228109909201,0.9772696538999972
49.36296296296297,0.8329506585960037,0.7093779149199464,0.9780496193398023
49.6964964964965,0.8326699586075297,0.7083308469804588,0.9788353322788339
50.030030030030034,0.8323893532134735,0.7072816991003886,0.9796266978552225
50.36356356356357,0.832108842381958,0.7062305609339324,0.9804236234900298
50.6970970970971,0.831828426081117,0.7051775199125131,0.9812260188362679
51.03063063063063,0.8315481042790946,0.7041226612952034,0.9820337957284638
51.364164164164166,0.8312678769440427,0.7030660682185553,0.9828468681328107
51.6976976976977,0.8309877440441286,0.7020078217458019,0.983665152097972
52.03123123123123,0.8307077055475287,0.7009480009153667,0.9844885657065455
52.364764764764764,0.8304277614224274,0.6998866827886663,0.985317029027247
52.6982982982983,0.8301479116370222,0.6988239424971717,0.9861504640678482
53.03183183183183,0.8298681561595228,0.6977598532886959,0.9869887947288742
53.36536536536536,0.8295884949581479,0.6966944865728877,0.987831946758092
53.698898898898904,0.8293089280011244,0.695627911965917,0.9886798477058112
54.03243243243244,0.829029455256696,0.6945601973343434,0.9895324268810217
54.36596596596597,0.8287500766931111,0.693491408838133,0.9903896153083404
54.6994994994995,0.8284707922786304,0.6924216109728459,0.991251345685827
55.033033033033036,0.8281916019815291,0.6913508666109689,0.9921175523436437
55.36656656656657,0.8279125057700891,0.6902792370423887,0.9929881712035565
55.7001001001001,0.8276335036126031,0.6892067820140175,0.9938631397393028
56.033633633633634,0.8273545954773742,0.6881335597685633,0.9947423969378116
56.36716716716717,0.8270757813327207,0.687059627082451,0.9956258832612793
56.7007007007007,0.8267970611469674,0.6859850393028881,0.9965135406100745
57.03423423423423,0.8265184348884479,0.6849098503840958,0.9974053122865006
57.367767767767766,0.8262399025255125,0.6838341129227109,0.9983011429593982
57.70130130130131,0.8259614640265183,0.6827578781923473,0.9992009786295514
58.03483483483484,0.8256831193598316,0.6816811961773511,1.0001047665959268
58.36836836836837,0.8254048684938335,0.6806041156057477,1.0010124554227262
58.701901901901905,0.8251267113969135,0.6795266839813885,1.0019239949072152
59.03543543543544,0.8248486480374705,0.6784489476153132,1.0028393360483505
59.36896896896897,0.8245706783839152,0.6773709516563446,1.0037584310161811
59.702502502502504,0.824292802404671,0.67629274012092,1.0046812331220056
60.03603603603604,0.8240150200681714,0.6752143559221727,1.0056076967892733
60.36956956956957,0.8237373313428547,0.6741358408982815,1.0065377775252147
60.7031031031031,0.823459736197178,0.6730572358401082,1.0074714318932194
61.036636636636636,0.8231822345996057,0.671978580518117,1.0084086174858828
61.37017017017017,0.8229048265186106,0.6708999137086066,1.0093492928987653
61.7037037037037,0.8226275119226777,0.6698212732192692,1.0102934177048284
62.03723723723724,0.8223502907803064,0.6687426959140834,1.0112409524295378
62.370770770770775,0.8220731630600003,0.6676642177375495,1.0121918585265928
62.70430430430431,0.8217961287302762,0.6665858737383045,1.0131460983543203
63.03783783783784,0.8215191877596646,0.6655076980921097,1.0141036351526775
63.371371371371374,0.8212423401167037,0.6644297241242278,1.0150644330208507
63.70490490490491,0.8209655857699388,0.6633519843312128,1.016028456895453
64.03843843843845,0.8206889246879354,0.6622745104021279,1.0169956725293223
64.37197197197197,0.8204123568392587,0.6611973332391816,1.0179660464708324
64.70550550550551,0.8201358821924908,0.6601204829778339,1.0189395460438107
65.03903903903904,0.819859500716225,0.6590439890063527,1.0199161393279599
65.37257257257258,0.8195832123790635,0.657967879984849,1.0208957951398063
65.7061061061061,0.819307017149617,0.6568921838638028,1.0218784830141618
66.03963963963965,0.8190309149965073,0.655816927902093,1.02286417318609
66.37317317317317,0.8187549058883715,0.6547421386845446,1.0238528365733552
66.70670670670671,0.8184789897938539,0.6536678421389956,1.024844444759329
67.04024024024024,0.8182031666816075,0.6525940635529112,1.0258389699763675
67.37377377377378,0.8179274365202964,0.6515208275895493,1.0268363850896403
67.7073073073073,0.8176517992786,0.6504481583036928,1.0278366635813967
68.04084084084084,0.8173762549252047,0.6493760791569503,1.0288397795356372
68.37437437437438,0.8171008034288038,0.6483046130326461,1.0298457076232097
68.70790790790791,0.8168254447581096,0.6472337822503201,1.0308544230873289
69.04144144144145,0.8165501788818389,0.6461636085798177,1.031865901729441
69.37497497497498,0.8162750057687175,0.6450941132550125,1.0328801198955018
69.70850850850852,0.8159999253874881,0.6440253169871597,1.0338970544626302
70.04204204204204,0.8157249377069026,0.6429572399778817,1.0349166828260938
70.37557557557558,0.8154500426957132,0.6418899019318031,1.0359389828866452
70.70910910910911,0.8151752403226983,0.640823322068865,1.036963933038252
71.04264264264265,0.8149005305566386,0.6397575191362798,1.0379915121560825
71.37617617617617,0.8146259133663226,0.6386925114201821,1.0390216995848525
71.70970970970971,0.8143513887205525,0.6376283167569661,1.0400544751274918
72.04324324324324,0.814076956588146,0.6365649525443164,1.0410898190341085
72.37677677677678,0.8138026169379251,0.6355024357519375,1.042127711991222
72.71031031031032,0.8135283697387187,0.6344407829320026,1.0431681351113111
73.04384384384385,0.8132542149593773,0.6333800102293287,1.0442110699226606
73.37737737737739,0.8129801525687561,0.6323201333912656,1.0452564983594237
73.71091091091091,0.8127061825357159,0.6312611677773283,1.0463044027519823
74.04444444444445,0.8124323048291322,0.6302031283685788,1.047354765817575
74.37797797797798,0.8121585194178993,0.6291460297767558,1.048407570651165
74.71151151151152,0.8118848262709067,0.6280898862531469,1.0494628007165079
75.04504504504504,0.8116112253570633,0.6270347116972498,1.0505204398375303
75.37857857857858,0.8113377166452905,0.6259805196651921,1.0515804721898874
75.71211211211211,0.8110643001045138,0.6249273233779233,1.0526428822927405
76.04564564564565,0.8107909757036702,0.6238751357292018,1.0537076550007782
76.37917917917918,0.8105177434117135,0.6228239692933698,1.0547747754964407
76.71271271271272,0.8102446031976017,0.6217738363329156,1.0558442292823205
77.04624624624626,0.8099715550303015,0.6207247488058455,1.0569160021737907
77.37977977977978,0.8096985988787987,0.6196767183728661,1.0579900802918356
77.71331331331332,0.809425734712085,0.6186297564043675,1.0590664500560278
78.04684684684685,0.8091529624991577,0.6175838739872316,1.0601450981777087
78.38038038038039,0.8088802822090286,0.6165390819314668,1.0612260116533652
78.71391391391391,0.8086076938107231,0.6154953907766659,1.062309177758158
79.04744744744745,0.8083351972732764,0.61445281079829694,1.0633945840396142
79.38098098098098,0.8080627925657257,0.6134113520138276,1.0644822183114728
79.71451451451452,0.8077904796571289,0.6123710241887059,1.06557206864774
80.04804804804805,0.8075182585165495,0.6113318368421702,1.0666641233768301
80.38158158158159,0.8072461291130592,0.6102937992529196,1.0677583710758969
80.71511511511511,0.8069740914157464,0.6092569204646411,1.068854800565311
81.04864864864865,0.8067021453937093,0.6082212092913879,1.0699534009032587
81.38218218218219,0.8064302910160489,0.6071866743228224,1.0710541613804738
81.71571571571572,0.8061585282518835,0.6061533239293346,1.072157071515139
82.04924924924926,0.805886857070334,0.6051211662670177,1.073262121047871
82.38278278278278,0.8056152774405496,0.6040902092825363,1.0743692999368997
82.71631631631632,0.8053437893316698,0.6030604607178426,1.0754785983532542
83.04984984984985,0.805072392712853,0.6020319281148049,1.0765900066761915
83.38338338338339,0.8048010875532721,0.6010046188197041,1.0777035154886805
83.71691691691692,0.8045298738220984,0.599978539987613,1.0788191155729752
84.05045045045046,0.804258751488526,0.5989536985866838,1.0799367979063739
84.38398398398398,0.803987720521752,0.5979301014023098,1.0810565536570023
84.71751751751752,0.8037167808909875,0.596907755041197,1.0821783741797577
85.05105105105105,0.8034459325654528,0.5958866659353276,1.0833022510123258
85.38458458458459,0.8031751755143782,0.5948668403458282,1.0844281758713035
85.71811811811813,0.802904509707009,0.593848284366745,1.0855561406484255
86.05165165165165,0.8026339351125874,0.5928310039287155,1.0866861374068435
86.3851851851852,0.8023634517003877,0.5918150048025729,1.0878181583775917
86.71871871871872,0.8020930594396682,0.5908002926028274,1.0889521959559847
87.05225225225226,0.8018227582997136,0.5897868727911014,1.090088242698272
87.38578578578579,0.8015525482498247,0.5887747506794575,1.091226291318277
87.71931931931933,0.801282429259303,0.5877639314336442,1.092366334684106
88.05285285285285,0.8010124012974573,0.5867544200762737,1.0935083658149742
88.38638638638639,0.8007424643336185,0.5857462214899236,1.094652377878133
88.71991991991992,0.8004726183371113,0.5847393404201487,1.0957983641857794
