dose,RR,lb,ub
0,1,1,1
0.33353353353353354,0.9957870546675233,0.9926729064984677,0.998910972337444
0.6670670670670671,0.9915960359082562,0.9854076459186579,0.997823289175222
1.0006006006006007,0.9874309763159196,0.9782117317406239,0.9967371084921112
1.3341341341341342,0.9832958395043999,0.9710924445373493,0.9956525904671227
1.6676676676676676,0.9791945212684882,0.9640568365280943,0.9945698989442123
2.0012012012012015,0.9751308509007027,0.9571117366713567,0.9934892029276535
2.334734734734735,0.9711085926594236,0.950263756252077,0.9924106781220879
2.6682682682682684,0.9671314473837301,0.9435192949185732,0.991334508531985
3.001801801801802,0.9632030542505078,0.9368845471254305,0.9902608881361961
3.335335335335335,0.9593269926695838,0.9303655089391405,0.9891900226544933
3.668868868868869,0.9555067843128586,0.9239679851636645,0.9881221314244769
4.002402402402403,0.9517458952736194,0.9176975967432325,0.9870574494090427
4.335935935935936,0.9480477383524585,0.9115597883995398,0.9859962293567812
4.66946946946947,0.9444156754664663,0.9055598364600084,0.9849387441402623
5.003003003003003,0.9408530201786305,0.8997028568328641,0.983885289300235
5.336536536536537,0.9373630403446409,0.8939938130833713,0.9828361858273941
5.670070070070071,0.9339489608745923,0.8884375245635645,0.9817917832176434
6.003603603603604,0.9306139666073621,0.8830386745451021,0.9807524628418235
6.3371371371371374,0.9273612052957563,0.8778018183013141,0.9797186416768103
6.67067067067067,0.924193790700831,0.8727313910799502,0.9786907764518863
7.004204204204204,0.9211148057941236,0.8678317159023724,0.9776693682725391
7.337737737737738,0.918127306066872,0.863107011117728,0.9766549677935961
7.671271271271271,0.915233699113265,0.8585602619534679,0.9756481415604458
8.004804804804806,0.9124329100032493,0.8541880956146967,0.9746492833734517
8.338338338338339,0.9097226958114472,0.8499850689288084,0.973658730637965
8.671871871871872,0.9071008567847862,0.8459458841177203,0.9726768340954414
9.005405405405405,0.9045652357589259,0.8420653841189402,0.971703956931718
9.33893893893894,0.9021137164472385,0.8383385458528262,0.9707404740341216
9.672472472472473,0.8997442217863453,0.8347604736524087,0.9697867714026497
10.006006006006006,0.8974547123362394,0.831326392888675,0.9688432456665415
10.33953953953954,0.8952431847331235,0.8280316438127235,0.9679103036699553
10.673073073073073,0.8931076701931724,0.8248716756284942,0.9669883620990256
11.006606606606606,0.8910462330655222,0.8218420408046327,0.9660778471285297
11.340140140140141,0.8890569694328639,0.8189383896306239,0.9651791940705852
11.673673673673674,0.8871380057580988,0.816156465020093,0.9642928470107516
12.007207207207207,0.8852874975755868,0.8134920975627613,0.9634192584190151
12.340740740740742,0.8835036282255933,0.8109412008256919,0.9625588887246204
12.674274274274275,0.8817846076306018,0.8084997669040125,0.9617122058447877
13.007807807807808,0.8801286711122351,0.806163862221112,0.9608796846581134
13.34134134134134,0.8785340782475783,0.8039296235783043,0.9600618064140103
13.674874874874876,0.8769991117637721,0.8017932544540531,0.9592590580699631
14.008408408408409,0.8755220764697867,0.7997510215530136,0.9584719315487051
14.341941941941942,0.8741012982243568,0.7977992516053328,0.9577009229077079
14.675475475475476,0.8727351229391005,0.7959343284168131,0.9569465314136557
15.00900900900901,0.8714219156159025,0.7941526901706779,0.956209258514865
15.342542542542542,0.8701600594176883,0.7924508269817377,0.9554896067049522
15.676076076076077,0.8689479547717617,0.7908252787037409,0.9547880782714487
16.009609609609612,0.8677840185049291,0.7892726329905675,0.9541051739235494
16.343143143143145,0.8666666830096681,0.7877895236116879,0.9534413912937656
16.676676676676678,0.8655943954406464,0.7863726290219308,0.9527972233089543
17.01021021021021,0.8645656169409355,0.7850186711850904,0.9521731564270303
17.343743743743744,0.863578821897298,0.7837244146502212,0.9515696687366361
17.677277277277277,0.8626324972239677,0.7824866658786346,0.9509872279181759
18.01081081081081,0.8617251416743759,0.7813022728185939,0.9504262890658919
18.344344344344346,0.8608552651803071,0.7801681247235305,0.9498872923721048
18.67787787787788,0.8600213882180052,0.7790811522082484,0.9493706606763347
19.011411411411412,0.8592220412007752,0.7780383275360685,0.9488767968837654
19.344944944944945,0.85845576389766,0.7770366651282058,0.948406081259401
19.67847847847848,0.8577211048777961,0.7760732222848634,0.9479588686062775
20.01201201201201,0.8570166209800795,0.7751451001056242,0.9475354853382038
20.345545545545548,0.8563408768077987,0.7742494445947143,0.9471362264596912
20.67907907907908,0.8556924442479156,0.773383447934674,0.9467613524679679
21.012612612612614,0.8550699020146955,0.7725443499099038,0.9464110861941957
21.346146146146147,0.8544718352174132,0.7717294394595372,0.9460856096032026
21.67967967967968,0.8538968349518785,0.7709360563371319,0.9457850605731447
22.013213213213213,0.8533434979155453,0.7701615928528747,0.9455095296784642
22.346746746746746,0.8528104260459871,0.7694034956723491,0.9452590570012864
22.680280280280282,0.852296226182537,0.7686592676445415,0.9450336289979067
23.013813813813815,0.8517995097509081,0.7679264696306467,0.9448331754482492
23.34734734734735,0.8513188924706231,0.7672027223044814,0.9446575665170512
23.68088088088088,0.8508529940850977,0.7664857078949312,0.9445066099560118
24.014414414414414,0.8504004381142315,0.7657731718408833,0.944380048476213
24.347947947947947,0.8499598516293783,0.7650629243295856,0.9442775573197355
24.681481481481484,0.8495298650505689,0.7643528416902876,0.9441987420585373
25.015015015015017,0.8491091119658803,0.7636408676164301,0.9441431366473575
25.34854854854855,0.8486962289728414,0.7629250141914681,0.944110201755627
25.682082082082083,0.8482898555417857,0.7622033626956973,0.9440993234011689
26.015615615615616,0.8478886339010566,0.7614740641740977,0.9441098119058625
26.34914914914915,0.847491208943986,0.7607353397482112,0.9441409011905022
26.68268268268268,0.8470962281575632,0.7599854806583504,0.944191748422827
27.01621621621622,0.8467023492209497,0.7592228583266653,0.9442614382769513
27.34974974974975,0.8463087226724281,0.7584465679252017,0.9443492585519518
27.683283283283284,0.8459152791183906,0.7576567795704393,0.9444549019301924
28.016816816816817,0.8455220184737646,0.7568537601135323,0.944578096060075
28.35035035035035,0.8451289406535163,0.75603777849002,0.9447185665201028
28.683883883883883,0.844736045572652,0.7552091052329662,0.9448760373057173
29.01741741741742,0.844343333146217,0.7543680120045058,0.9450502312977256
29.350950950950953,0.8439508032892971,0.7535147711468348,0.9452408707112863
29.684484484484486,0.8435584559170164,0.7526496552534696,0.9454476775246227
30.01801801801802,0.8431662909445388,0.7517729367614259,0.9456703738868204
30.35155155155155,0.8427743082870682,0.7508848875647791,0.9459086825042423
30.685085085085085,0.8423825078598473,0.7499857786499,0.9461623270052658
31.01861861861862,0.8419908895781585,0.7490758797525129,0.9464310322832024
31.352152152152154,0.8415994533573231,0.7481554590365649,0.9467145248173998
31.685685685685687,0.841208199112703,0.7472247827947829,0.9470125329726651
32.019219219219224,0.8408171267596976,0.7462841151706536,0.9473247872772542
32.35275275275276,0.8404262362137476,0.7453337179014845,0.9476510206797919
32.68628628628629,0.8400355273903312,0.7443738500820807,0.9479909687855639
33.01981981981982,0.8396450002049675,0.7434047679485246,0.9483443700727194
33.353353353353356,0.8392546545732136,0.7424267246814422,0.9487109660889744
33.68688688688689,0.8388644904106667,0.7414399702281163,0.9490905016294771
34.02042042042042,0.8384745076329627,0.740444751142732,0.9494827248965368
34.353953953953955,0.8380847061557769,0.7394413104440204,0.9498873876419558
34.68748748748749,0.837695085894824,0.7384298874895302,0.9503042452927342
35.02102102102102,0.8373056467658576,0.7374107178657384,0.9507330570609336
35.354554554554554,0.836916388684671,0.7363840332932017,0.9511735860385034
35.68808808808809,0.8365273115670955,0.7353500615459376,0.9516255992778714
36.02162162162162,0.8361384153290035,0.7343090263842408,0.95208886785911
36.35515515515516,0.8357496998863034,0.7332611475001171,0.9525631669444681
36.68868868868869,0.835361165154946,0.732206640474571,0.9530482758210712
37.022222222222226,0.8349728110509191,0.7311457167459466,0.9535439779325479
37.35575575575576,0.8345846374902514,0.730078583588589,0.9540500609003495
37.68928928928929,0.8341966443890074,0.7290054441010725,0.9545663165354904
38.022822822822825,0.8338088316632942,0.7279264972033059,0.9550925408414302
38.35635635635636,0.8334211992292556,0.7268419376418063,0.9556285340087665
38.68988988988989,0.833033747003076,0.7257519560025022,0.956174100402414
39.023423423423424,0.8326464749009772,0.7246567387304224,0.9567290485418868
39.35695695695696,0.8322593828392205,0.7235564681556782,0.9572931910752962
39.69049049049049,0.8318724707341074,0.7224513225251626,0.9578663447476297
40.02402402402402,0.8314857385019756,0.7213414760394176,0.9584483303638511
40.357557557557556,0.8310991860592043,0.7202270988941716,0.959038972747352
40.691091091091096,0.8307128133222104,0.7191083573260444,0.9596381006942143
41.02462462462463,0.8303266202074502,0.7179854136619752,0.9602455469237624
41.35815815815816,0.8299406066314177,0.7168584263719413,0.9608611480258189
41.691691691691695,0.8295547725106469,0.7157275501245697,0.9614847444050731
42.02522522522523,0.8291691177617095,0.7145929358452614,0.9621161802229293
42.35875875875876,0.8287836423012183,0.7134547307764886,0.9627553033371931
42.692292292292294,0.828398346045822,0.7123130785399274,0.9634019652399056
43.02582582582583,0.8280132289122089,0.7111681192001417,0.964056020993644
43.35935935935936,0.8276282908171072,0.7100199893295268,0.9647173291665538
43.69289289289289,0.8272435316772838,0.7088688220742624,0.9653857517663733
44.026426426426426,0.8268589514095422,0.7077147472210328,0.9660611541736838
44.35995995995996,0.8264745499307262,0.7065578912643097,0.9667434050746123
44.69349349349349,0.8260903271577178,0.7053983774739843,0.9674323763931734
45.02702702702703,0.8257062830074385,0.7042363259631759,0.968127943223438
45.360560560560565,0.8253224173968471,0.7030718537560487,0.9688299837616922
45.6940940940941,0.8249387302429417,0.7019050748554889,0.9695383792387396
46.02762762762763,0.8245552214627595,0.7007361003105048,0.9702530138524789
46.361161161161164,0.8241718909733751,0.6995650382832259,0.9709737747008791
46.6946946946947,0.8237887386919022,0.6983919941153962,0.971700551715466
47.02822822822823,0.8234057645354924,0.6972170703942576,0.9724332375954156
47.36176176176176,0.8230229684213394,0.6960403670177424,0.973171727742346
47.695295295295296,0.8226403502666692,0.6948619812588837,0.9739159201958657
48.02882882882883,0.822257909988751,0.6936820078294,0.974665715569989
48.36236236236236,0.8218756475048907,0.692500538942368,0.975421016990427
48.695895895895895,0.8214935627324331,0.6913176643739481,0.9761817300328446
49.02942942942943,0.8211116555887618,0.6901334715241143,0.9769477626621083
49.36296296296297,0.8207299259912975,0.6889480454763477,0.9777190251725678
49.6964964964965,0.8203483738575,0.6877614690562678,0.9784954301294058
50.030030030030034,0.8199669991048679,0.6865738228891715,0.9792768923110754
50.36356356356357,0.8195858016509389,0.6853851854564595,0.9800633286528551
50.6970970970971,0.8192047814132848,0.6841956331509333,0.9808546581915176
51.03063063063063,0.8188239383095237,0.6830052403309625,0.9816508020111661
51.364164164164166,0.818443272257303,0.681814079373486,0.9824516831901761
51.6976976976977,0.8180627831743148,0.6806222207258842,0.9832572267493339
52.03123123123123,0.817682470978286,0.6794297329566803,0.9840673596010922
52.364764764764764,0.8173023355869834,0.678236682805102,0.9848820104999978
52.6982982982983,0.816922376918212,0.6770431352294921,0.9857011099942556
53.03183183183183,0.8165425948898127,0.6758491534545791,0.9865245903784323
53.36536536536536,0.8161629894196704,0.6746547990176233,0.9873523856473043
53.698898898898904,0.8157835604257018,0.6734601318134298,0.9881844314507996
54.03243243243244,0.8154043078258637,0.672265210138267,0.989020665050073
54.36596596596597,0.8150252315381513,0.671070090732683,0.9898610252746666
54.6994994994995,0.8146463314806014,0.6698748288232472,0.9907054524807526
55.033033033033036,0.814267607571282,0.6686794781632179,0.991553888510423
55.36656656656657,0.8138890597283048,0.667484091072179,0.9924062766520577
55.7001001001001,0.8135106878698176,0.6662887184746331,0.9932625616016936
56.033633633633634,0.813132491914006,0.6650934099375916,0.9941226894254188
56.36716716716717,0.8127544717790935,0.6638982137071704,0.9949866075227534
56.7007007007007,0.8123766273833419,0.662703176744213,0.9958542645910082
57.03423423423423,0.8119989586450546,0.6615083447589634,0.99672561059059706
57.367767767767766,0.8116214654825653,0.6603137622447953,0.9976005967112631
57.70130130130131,0.8112441478142506,0.6591194725110436,0.998479175339252
58.03483483483484,0.8108670055585254,0.6579255177149335,0.9993613000253534
58.36836836836837,0.8104900386338427,0.6567319388926368,1.0002469254538229
58.701901901901905,0.8101132469586909,0.6555387759894774,1.0011360074121496
59.03543543543544,0.8097366304515967,0.6543460678893052,1.0020285027616687
59.36896896896897,0.8093601890311257,0.6531538524430588,1.0029243694089782
59.702502502502504,0.808983922615883,0.6519621664965338,1.003823566278152
60.03603603603604,0.8086078311245085,0.6507710459173774,1.0047260532837148
60.36956956956957,0.8082319144756807,0.6495805256213327,1.0056317913043837
60.7031031031031,0.8078561725881185,0.6483906395977507,1.0065407421575427
61.036636636636636,0.8074806053805752,0.6472014209343817,1.0074528685744149
61.37017017017017,0.8071052127718418,0.6460129018414764,1.008368134175949
61.7037037037037,0.806729994680751,0.6448251136752097,1.009286503449385
62.03723723723724,0.8063549510261694,0.6436380869604397,1.0102079417254564
62.370770770770775,0.805980081727002,0.6424518514128316,1.0111324151562564
62.70430430430431,0.8056053867021926,0.6412664359603546,1.0120598906937224
63.03783783783784,0.8052308658707223,0.6400818687641727,1.0129903360687194
63.371371371371374,0.8048565191516102,0.6388981772389442,1.013923719770725
63.70490490490491,0.8044823464639109,0.6377153880725493,1.014860011028074
64.03843843843845,0.8041083477267199,0.6365335272452615,1.0157991797887795
64.37197197197197,0.8037345228591688,0.6353526200483726,1.0167411967018778
64.70550550550551,0.8033608717804256,0.6341726911022948,1.0176860330993052
65.03903903903904,0.8029873944096977,0.6329937643741521,1.0186336609782958
65.37257257257258,0.8026140906662262,0.63181586319487,1.0195840529842581
65.7061061061061,0.8022409604693013,0.6306390102757947,1.020537182394169
66.03963963963965,0.8018680037382342,0.6294632277248184,1.0214930231003687
66.37317317317317,0.801495220392385,0.6282885370620823,1.0224515495948983
66.70670670670671,0.8011226103511473,0.6271149592352114,1.0234127369542108
67.04024024024024,0.8007501735339513,0.6259425146341326,1.0243765608243418
67.37377377377378,0.8003779098602702,0.6247712231054761,1.0253429974065014
67.7073073073073,0.8000058192496049,0.6236011039665608,1.0263120234430352
68.04084084084084,0.7996339016215066,0.6224321760190084,1.0272836162038421
68.37437437437438,0.7992621568955525,0.6212644575619508,1.0282577534730921
68.70790790790791,0.7988905849913619,0.6200979664048882,1.0292344135363853
69.04144144144145,0.7985191858285898,0.6189327198801764,1.0302135751682313
69.37497497497498,0.7981479593269346,0.6177687348551738,1.0311952176198982
69.70850850850852,0.7977769054061233,0.6166060277440369,1.032179320607567
70.04204204204204,0.797406023985924,0.6154446145192038,1.0331658643008552
70.37557557557558,0.7970353149861414,0.6142845107225466,1.0341548293116372
70.70910910910911,0.7966647783266217,0.6131257314762228,1.035146196683181
71.04264264264265,0.7962944139272439,0.6119682914932184,1.03613994787957
71.37617617617617,0.7959242217079248,0.6108122050876051,1.0371360647754369
71.70970970970971,0.7955542015886208,0.6096574861845158,1.0381345296459719
72.04324324324324,0.7951843534893202,0.6085041483298381,1.0391353251571944
72.37677677677678,0.794814677330053,0.607352204699653,1.0401384343565176
72.71031031031032,0.7944451730308848,0.6062016681094042,1.0411438406635445
73.04384384384385,0.7940758405119204,0.6050525510228252,1.042151527861132
73.37737737737739,0.7937066796933022,0.6039048655606151,1.0431614800866924
73.71091091091091,0.7933376904952049,0.6027586235088818,1.0441736818237182
74.04444444444445,0.7929688728378418,0.6016138363273574,1.045188117893564
74.37797797797798,0.7926002266414696,0.6004705151573921,1.0462047734474431
74.71151151151152,0.7922317518263786,0.5993286708297255,1.0472236339586165
75.04504504504504,0.7918634483128808,0.598188313872044,1.0482446852147895
75.37857857857858,0.7914953160213563,0.5970494545163668,1.0492679133108118
75.71211211211211,0.7911273548721979,0.5959121027061824,1.0502933046413978
76.04564564564565,0.7907595647858386,0.5947762681034346,1.0513208458941843
76.37917917917918,0.7903919456827577,0.5936419600953097,1.052350524042937
76.71271271271272,0.790024497483462,0.5925091878008343,1.0533823263408943
77.04624624624626,0.7896572201085059,0.5913779600773127,1.054416240314356
77.37977977977978,0.7892901134784693,0.590248285526576,1.0554522537563649
77.71331331331332,0.7889231775139739,0.5891201725010833,1.0564903547206248
78.04684684684685,0.7885564121356821,0.5879936291098529,1.0575305315155497
78.38038038038039,0.7881898172642894,0.5868686632242355,1.0585727726984537
78.71391391391391,0.7878233928205186,0.585745282483536,1.0596170670698977
79.04744744744745,0.7874571387251508,0.5846234943005065,1.0606634036682505
79.38098098098098,0.78709105489899,0.583503305866663,1.0617117717642723
79.71451451451452,0.7867251412628682,0.5823847241574839,1.0627621608559086
80.04804804804805,0.7863593977376822,0.5812677559374883,1.0638145606632807
80.38158158158159,0.7859938242443323,0.5801524077651363,1.0648689611236248
80.71511511511511,0.785628420703783,0.5790386859976605,1.0659253523865833
81.04864864864865,0.7852631870370256,0.5779265967957261,1.0669837248094387
81.38218218218219,0.7848981231650721,0.5768161461279881,1.0680440689525286
81.71571571571572,0.7845332290090007,0.5757073397755524,1.0691063755748667
82.04924924924926,0.7841685044899114,0.5746001833362845,1.070170635629718
82.38278278278278,0.7838039495289278,0.5734946822290287,1.0712368402603638
82.71631631631632,0.7834395640472394,0.5723908416977372,1.0723049807960525
83.04984984984985,0.7830753479660463,0.5712886668154528,1.073375048747874
83.38338338338339,0.7827113012065929,0.5701881624882287,1.0744470358048963
83.71691691691692,0.782347423690175,0.5690893334589392,1.075520933830358
84.05045045045046,0.7819837153380951,0.5679921843109721,1.0765967348578505
84.38398398398398,0.7816201760717273,0.5668967194718747,1.0776744310878092
84.71751751751752,0.7812568058124622,0.5658029432168588,1.0787540148838601
85.05105105105105,0.7808936044817133,0.564710859672243,1.0798354787693762
85.38458458458459,0.7805305720009628,0.5636204728188284,1.0809188154241904
85.71811811811813,0.7801677082917136,0.562531786495149,1.0820040176812178
86.05165165165165,0.7798050132754866,0.561444804400662,1.0830910785232388
86.3851851851852,0.7794424868738865,0.5603595300988885,1.0841799910798982
86.71871871871872,0.7790801290084977,0.5592759670204044,1.0852707486244497
87.05225225225226,0.7787179396009866,0.5581941184658475,1.0863633445709762
87.38578578578579,0.7783559185730362,0.5571139876087771,1.0874577724713552
87.71931931931933,0.7779940658463532,0.5560355774984973,1.0885540260124373
88.05285285285285,0.7776323813427136,0.5549588910628274,1.0896520990133658
88.38638638638639,0.7772708649839091,0.553883931110762,1.0907519854227734
88.71991991991992,0.7769095166917523,0.5528107003350947,1.0918536793161524
89.05345345345346,0.7765483363881301,0.5517392013149952,1.0929571748933902
