dose,RR,lb,ub
0,1,1,1
0.10307307307307308,0.9971237692923435,0.9951834151155384,0.9990679066655667
0.20614614614614615,0.9942562765409911,0.9903909141801942,0.9981367248905287
0.30921921921921924,0.9913979578535607,0.9856232528711371,0.9972064964712368
0.4122922922922923,0.988549244096425,0.9808811705768783,0.9962772630540787
0.5153653653653654,0.9857105609381134,0.9761653906130658,0.9953490661400274
0.6184384384384385,0.9828823288945531,0.971476620443618,0.9944219470892021
0.7215115115115115,0.9800649633761098,0.966815551906956,0.9934959471254494
0.8245845845845846,0.9772588747363865,0.9621828614470966,0.9925711073409498
0.9276576576576577,0.9744644683227409,0.9575792103493743,0.9916474687008565
1.0307307307307307,0.971682144528482,0.9530052449805679,0.9907250720479734
1.1338038038038039,0.968912298846707,0.94846159703321,0.9898039581074776
1.236876876876877,0.9661553219257419,0.943948883773867,0.9888841674916937
1.33994994994995,0.9634115996261458,0.9394677082951804,0.9879657407049278
1.443023023023023,0.9606815130792459,0.9350186597714671,0.9870487181483655
1.546096096096096,0.9579654387471643,0.930602313717681,0.9861331401250429
1.6491691691691692,0.9552637484843037,0.9262192322515478,0.9852190468448979
1.7522422422422423,0.9525768096002557,0.9218699643586853,0.9843064784299074
1.8553153153153155,0.9499049849241002,0.9175550461605325,0.9833954749193197
1.9583883883883884,0.9472486328700626,0.9132750011849134,0.98248607627499
2.0614614614614615,0.944608107504494,0.9090303406390687,0.9815783223868256
2.1645345345345346,0.9419837586141493,0.9048215636849947,0.9806722530783504
2.2676076076076077,0.9393759317757261,0.9006491577169344,0.9797679081123976
2.370680680680681,0.9367849684266403,0.8965135986408718,0.9788653271969382
2.473753753753754,0.9342112059370058,0.8924153511558833,0.977964549991057
2.576826826826827,0.931654977682794,0.8883548690372151,0.9770656161110834
2.6798998998999,0.9291166131201437,0.8843325954209466,0.9761685651368894
2.782972972972973,0.9265964378607958,0.8803489630901215,0.9752734366183635
2.886046046046046,0.9240947737486294,0.8764043947622221,0.9743802700820741
2.989119119119119,0.9216119389372726,0.8724993033778735,0.9734891050381314
3.092192192192192,0.9191482479687667,0.8686340923906695,0.9725999809872627
3.1952652652652653,0.9167040118532603,0.8648091560580166,0.9717129374281128
3.2983383383383384,0.9142795381497129,0.8610248797328982,0.9708280138647819
3.4014114114114116,0.9118751310475852,0.8572816401564679,0.969945249814618
3.5044844844844847,0.9094910914495008,0.8535798057513839,0.9690646848162775
3.607557557557558,0.9071277170548557,0.8499197369158044,0.9681863584380691
3.710630630630631,0.9047853024443616,0.8463017863179658,0.9673103102865994
3.813703703703704,0.9024641391655049,0.8427262991912763,0.9664365800157371
3.9167767767767767,0.9001645158189062,0.8391936136298547,0.9655652073359144
4.01984984984985,0.8978867181455646,0.8357040608844563,0.9646962320237873
4.122922922922923,0.8956310291149752,0.8322579656587302,0.9638296939322722
4.225995995995996,0.8933977290141041,0.828855646405754,0.9629656330009863
4.329069069069069,0.8911870955372126,0.8254974156248024,0.9621040892671092
4.432142142142142,0.8889994038765171,0.8221835801583055,0.9612451028766986
4.535215215215215,0.8868349268136765,0.8189144414889608,0.9603887140964786
4.6382882882882885,0.8846939348120985,0.8156902960369642,0.9595349633261362
4.741361361361362,0.8825766961100563,0.8125114354573325,0.9586838911111514
4.844434434434435,0.8804834768146103,0.8093781469372905,0.957835538156196
4.947507507507508,0.8784145409963282,0.8062907134937025,0.9569899453391343
5.050580580580581,0.8763701507848005,0.8032494142705318,0.956147153725662
5.153653653653654,0.8743505262126589,0.8002544546216207,0.9553072004451658
5.256726726726727,0.8723555570012679,0.7973054647426937,0.9544700889220463
5.3597997997998,0.8703849739057731,0.7944018019501594,0.9536358061389228
5.4628728728728735,0.868438509692615,0.7915428322119494,0.9528043391026298
5.565945945945946,0.8665159001932069,0.7887279318605406,0.9519756749535349
5.669019019019019,0.8646168842529801,0.7859564873790351,0.9511498009619609
5.772092092092092,0.862741203681254,0.7832278951914634,0.9503267045250299
5.875165165165165,0.8608886032019119,0.7805415614572504,0.9495063731638715
5.978238238238238,0.8590588304048701,0.7778969018697867,0.9486887945211475
6.081311311311311,0.8572516356983249,0.7752933414590375,0.9478739563588535
6.184384384384384,0.8554667722617642,0.7727303143981198,0.9470618465563616
6.2874574574574575,0.8537039959997302,0.7702072638137785,0.946252453108674
6.390530530530531,0.8519630654963192,0.7677236416006886,0.9454457641248628
6.493603603603604,0.8502437419704044,0.7652789082395096,0.9446417678266716
6.596676676676677,0.8485457892315726,0.7628725326186188,0.9438404525472612
6.69974974974975,0.846868973636757,0.7605039918594494,0.9430418067300812
6.802822822822823,0.8452130640475578,0.7581727711453615,0.9422458189278532
6.905895895895896,0.843577831788237,0.7558783635539694,0.9414524778016528
7.008968968968969,0.841963050604375,0.7536202698928559,0.940661772120078
7.1120420420420425,0.8403684966221788,0.7513979985386007,0.9398736907584953
7.215115115115116,0.8387939483084295,0.7492110652790518,0.9390882226983526
7.318188188188189,0.8372391864310571,0.747058993158771,0.9383053570265538
7.421261261261262,0.8357039940203352,0.7449413123275843,0.937525082934885
7.524334334334335,0.83418815633068,0.7428575598921707,0.9367473897194878
7.627407407407408,0.8326914608030467,0.7408072797706221,0.9359722667803739
7.73048048048048,0.8312136970279125,0.7387900225499106,0.9351997036209756
7.833553553553553,0.8297546567088347,0.7368053453461991,0.9344296898477271
7.9366266266266265,0.8283141336265761,0.7348528116679333,0.9336622151696735
8.0396996996997,0.8268919236037859,0.732931991281654,0.9328972693981031
8.142772772772773,0.8254878244702285,0.7310424600804701,0.9321348424461992
8.245845845845846,0.8241016360285507,0.7291837999551348,0.9313749243287085
8.348918918918919,0.8227331600205765,0.7273555986676665,0.9306175051616243
8.451991991991992,0.8213822000941237,0.7255574497274613,0.9298625751618793
8.555065065065065,0.8200485617703304,0.7237889522698406,0.9291101246470473
8.658138138138138,0.8187320524114856,0.7220497109369819,0.9283601440350513
8.761211211211211,0.8174324811893536,0.7203393357611807,0.9276126238438752
8.864284284284285,0.8161496590539853,0.7186574420503938,0.9268675546912768
8.967357357357358,0.8148833987030079,0.7170036502760141,0.926124927294501
9.07043043043043,0.8136335145513852,0.715377585962828,0.9253847324699904
9.173503503503504,0.8123998227016413,0.713778879581112,0.9246469611330917
9.276576576576577,0.8111821409145392,0.7122071664408179,0.9239116042977565
9.37964964964965,0.8099802885802084,0.710662086587807,0.923178653076234
9.482722722722723,0.8087940866897128,0.7091432847020865,0.9224480986787548
9.585795795795796,0.8076233578070527,0.7076504099980073,0.9217199324132032
9.68886886886887,0.8064679260415951,0.7061831161263826,0.9209941456847777
9.791941941941943,0.8053276170209221,0.7047410610784856,0.9202707299956361
9.895015015015016,0.8042022578640953,0.7033239070918895,0.919549676944526
9.998088088088089,0.803091677155326,0.7019313205581091,0.9188309782263974
10.101161161161162,0.8019957049180473,0.7005629719320101,0.9181146256319953
10.204234234234235,0.8009141725893804,0.6992185356429468,0.9174006110474344
10.307307307307308,0.7998469129949894,0.6978976900075957,0.9166889264537489
10.410380380380381,0.7987937603243204,0.6966001171444511,0.9159795639264203
10.513453453453455,0.7977545501062148,0.6953255028899463,0.9152725156348799
10.616526526526528,0.7967291191848969,0.6940735367161719,0.9145677738419835
10.7195995995996,0.7957173056963248,0.692843911650158,0.9138653309034588
10.822672672672674,0.7947189490449029,0.6916363241946895,0.9131651792673217
10.925745745745747,0.7937338898805492,0.6904504742506266,0.9124673114732618
11.028818818818818,0.7927619700761108,0.6892860650406986,0.9117717201519934
11.131891891891891,0.7918030327051268,0.6881428030347465,0.9110783980245728
11.234964964964965,0.7908569220199272,0.6870203978763851,0.9103873379016769
11.338038038038038,0.7899234834300702,0.6859185623110583,0.9096985326828451
11.44111111111111,0.7890025634811062,0.684837012115462,0.9090119753556788
11.544184184184184,0.7880940098336688,0.6837754660283109,0.9083276589950003
11.647257257257257,0.7871976712428863,0.682733645682423,0.907645576761967
11.75033033033033,0.7863133975381078,0.6817112755381001,0.9069657219031387
11.853403403403403,0.7854410396029435,0.6807080828177797,0.9062880877494984
11.956476476476476,0.7845804493556103,0.6797237974419391,0.9056126677154218
12.05954954954955,0.7837314797295816,0.6787581519662264,0.9049394552975956
12.162622622622623,0.7828939846545359,0.677810881519801,0.9042684440738816
12.265695695695696,0.7820678190376008,0.6768817237448619,0.9035996277021247
12.368768768768769,0.7812528387448885,0.6759704187373445,0.9029329999189019
12.471841841841842,0.7804489005833172,0.6750767089887675,0.9022685545382121
12.574914914914915,0.7796558622827175,0.6742003393292106,0.901606285450102
12.677987987987988,0.7788735824782189,0.6733410568714071,0.9009461866192279
12.781061061061061,0.7781019206929104,0.6724986109559321,0.9002882520833491
12.884134134134134,0.777340737320777,0.6716727530974719,0.8996324759517532
12.987207207207208,0.7765898936099032,0.6708632369321574,0.8989788524036081
13.09028028028028,0.7758492516459433,0.6700698181659462,0.8983273756862395
13.193353353353354,0.7751186743358547,0.6692922545240387,0.8976780401133326
13.296426426426427,0.7743980253918905,0.6685303057013142,0.8970308400630524
13.3994994994995,0.7736871693158481,0.6677837333137726,0.8963857699760838
13.502572572572573,0.7729859713835717,0.6670523008509683,0.8957428243535854
13.605645645645646,0.7722942976297049,0.6663357736294241,0.8951019977550574
13.70871871871872,0.7716120148326907,0.665633918747012,0.8944632847961177
13.811791791791793,0.7709389905000161,0.6649465050382894,0.8938266801461869
13.914864864864866,0.7702750928536987,0.6642733030307789,0.8931921785260766
14.017937937937939,0.7696201908160111,0.6636140849021809,0.8925597747054792
14.121011011011012,0.7689741539954443,0.6629686244385089,0.8919294635003576
14.224084084084085,0.7683368526729021,0.6623366969931355,0.8913012397702299
14.327157157157158,0.7677081577881281,0.6617180794467422,0.8906750984153469
14.430230230230231,0.7670879409263618,0.6611125501681606,0.8900510343737599
14.533303303303304,0.7664760743052204,0.6605198889760984,0.8894290426182768
14.636376376376377,0.7658724307618043,0.6599398771017403,0.8888091181532998
14.73944944944945,0.7652768837400259,0.6593722971522157,0.8881912560115464
14.842522522522524,0.7646893072781555,0.658816933074926,0.8875754512506479
14.945595595595597,0.7641095759965869,0.6582735701227231,0.8869616989496222
15.04866866866867,0.7635375650858162,0.6577419948199326,0.8863499942052199
15.151741741741743,0.7629731502946347,0.6572219949292134,0.8857403321281385
15.254814814814816,0.7624162079185328,0.6567133594192505,0.8851327078391034
15.35788788788789,0.7618666147883124,0.65621587843327,0.8845271164648104
15.46096096096096,0.7613242482589062,0.6557293432583734,0.88392355313372994
15.564034034034034,0.7607889861984036,0.6552535462956863,0.8833220129717674
15.667107107107107,0.7602607069772785,0.6547882810313123,0.8827224910977772
15.77018018018018,0.7597392894578191,0.6543333420080907,0.8821249826189277
15.873253253253253,0.7592246129837579,0.6538885247981505,0.8815294826259159
15.976326326326326,0.7587165573700996,0.6534536259762584,0.8809359861880245
16.0793993993994,0.7582150028931447,0.6530284430939517,0.8803444883480237
16.182472472472472,0.75771983028071,0.6526127746544592,0.8797549841169124
16.285545545545546,0.7572309207025393,0.6522064200883967,0.8791674684684949
16.38861861861862,0.7567481557609093,0.6518091797302424,0.8785819363337924
16.491691691691692,0.7562714174814222,0.6514208547955804,0.8779983825952881
16.594764764764765,0.7558005883039903,0.651041247359114,0.8774168020809983
16.697837837837838,0.7553355510740062,0.6506701603334435,0.8768371895583732
16.80091091091091,0.7548761890336984,0.6503073974486029,0.8762595397280208
16.903983983983984,0.7544223858136736,0.6499527632323567,0.8756838472172543
17.007057057057057,0.7539740254246403,0.649606062991248,0.875110106573459
17.11013013013013,0.753530992249316,0.6492671027924003,0.8745383122572784
17.213203203203204,0.7530931710345135,0.6489356894460646,0.8739684586356177
17.316276276276277,0.7526604468834088,0.6486116304889129,0.8734005399744619
17.41934934934935,0.7522327052479861,0.648294734168072,0.8728345504315087
17.522422422422423,0.7518098319216603,0.6479848094258958,0.8722704840486141
17.625495495495496,0.7513917130320756,0.6476816658854726,0.8717083347440493
17.72856856856857,0.7509782350340796,0.6473851138368637,0.8711480963045701
17.831641641641642,0.7505692847028712,0.647094964224072,0.8705897623772962
17.934714714714715,0.7501647491273217,0.6468110286327332,0.8700333264614012
18.03778778778779,0.7497645157034665,0.6465331192785305,0.8694787818996125
18.14086086086086,0.7493684721281711,0.6462610489963281,0.8689261218695238
18.243933933933935,0.7489765063929632,0.6459946312300143,0.8683753393747164
18.347007007007008,0.7485885067780371,0.6457336800230618,0.8678264272356951
18.45008008008008,0.7482043618464241,0.645478010009787,0.8672793780806363
18.553153153153154,0.7478239604383328,0.6452274364073173,0.8667341843359513
18.656226226226227,0.747447191665653,0.6449817750082519,0.8661908382166669
18.7592992992993,0.7470739449066276,0.644740842174016,0.8656493317166248
18.862372372372374,0.7467041098006894,0.6445044548289045,0.8651096565985045
18.965445445445447,0.74633757624346,0.6442724304548053,0.8645718043836682
19.06851851851852,0.7459742343819143,0.6440445870866005,0.8640357663418378
19.171591591591593,0.7456139746097065,0.6438207433082381,0.8635015334806011
19.274664664664666,0.7452566875626585,0.643600718249469,0.8629690965347587
19.37773773773774,0.7449022641144092,0.6433843315832397,0.8624384459555088
19.480810810810812,0.7445505953722239,0.643171403523737,0.8619095718994819
19.583883883883885,0.7442015726729662,0.6429617548250777,0.8613824642176287
19.68695695695696,0.7438550875792241,0.6427552067806283,0.860857112443965
19.79003003003003,0.7435110318756007,0.6425515812229586,0.8603335057841867
19.893103103103105,0.7431692975651569,0.6423507005244069,0.8598116331041556
19.996176176176178,0.742829776866017,0.6421523875982601,0.8592914829182701
20.09924924924925,0.7424923622081268,0.6419564659005276,0.8587730433777239
20.202322322322324,0.7421569462301697,0.6417627594323075,0.8582563022586673
20.305395395395397,0.7418234217766394,0.641571092742731,0.8577412469502769
20.40846846846847,0.7414916818950651,0.6413812909324698,0.8572278644427457
20.511541541541543,0.7411616198333939,0.6411931796578031,0.8567161413152053
20.614614614614617,0.7408331290375246,0.6410065851352221,0.8562060637235912
20.71768768768769,0.740506103148998,0.6408213341465682,0.855697617388463
20.820760760760763,0.7401804360028367,0.6406372540446814,0.8551907875827937
20.923833833833836,0.7398560216255401,0.6404541727595546,0.8546855591197416
21.02690690690691,0.7395327542332315,0.6402719188049729,0.8541819163404193
21.129979979979982,0.7392105282299527,0.6400903212856187,0.8536798431016718
21.233053053053055,0.7388892382061159,0.6399092099046404,0.8531793227638855
21.33612612612613,0.738568778937099,0.6397284149716486,0.8526803381788384
21.4391991991992,0.738249045381999,0.6395477674111423,0.8521828716776121
21.542272272272275,0.7379299326825266,0.6393670987713296,0.8516869050585817
21.645345345345348,0.7376113361620554,0.6391862412333349,0.851192419575502
21.74841841841842,0.7372931513248209,0.6390050276207749,0.8506993959257104
21.851491491491494,0.7369752738552598,0.6388232914096683,0.8502078142384638
21.954564564564567,0.736657600443806,0.6386408680368346,0.8497176542424578
22.057637637637637,0.7363400684427807,0.6384576571718389,0.8492289039120856
22.16071071071071,0.7360226733120895,0.6382736499144783,0.8487415635943308
22.263783783783783,0.7357054149927349,0.6380888444279651,0.84825563458152
22.366856856856856,0.7353882934257451,0.6379032388951811,0.8477711181467948
22.46992992992993,0.7350713085521741,0.6377168315189938,0.8472880155437961
22.573003003003002,0.7347544603131003,0.6375296205225662,0.8468063280063489
22.676076076076075,0.7344377486496293,0.637341604149677,0.8463260567481494
22.77914914914915,0.73412117350289,0.6371527806650273,0.8458472029624491
22.88222222222222,0.733804734814038,0.6369631483545597,0.845369767821743
22.985295295295295,0.7334884325242541,0.6367727055257676,0.8448937524774551
23.088368368368368,0.7331722665747437,0.6365814505080061,0.8444191580596275
23.19144144144144,0.732856236906739,0.6363893816528085,0.8439459856766078
23.294514514514514,0.7325403434614957,0.6361964973341887,0.8434742364147385
23.397587587587587,0.7322245861802966,0.6360027959489593,0.8430039113380473
23.50066066066066,0.7319089650044481,0.6358082759170322,0.8425350114879377
23.603733733733733,0.7315934798752837,0.6356129356817322,0.8420675378828825
23.706806806806807,0.7312781307341607,0.6354167737100993,0.8416014915181153
23.80987987987988,0.730962917522462,0.6352197884931945,0.8411368733653265
23.912952952952953,0.730647840181597,0.6350219785464064,0.8406736843723589
24.016026026026026,0.7303328986529982,0.634823342409747,0.840211925462905
24.1190990990991,0.7300180928781256,0.6346238786481597,0.8397515975362061
24.222172172172172,0.7297034227984621,0.6344235858518116,0.8392927014667526
24.325245245245245,0.7293888883555182,0.634222462636396,0.8388352381039875
24.42831831831832,0.7290744894908282,0.6340205076434253,0.8383792082720084
24.53139139139139,0.728760226145951,0.6338177195405222,0.8379246127692761
24.634464464464465,0.7284460982624731,0.633614097021718,0.8374714523683211
24.737537537537538,0.728132105782003,0.6334096388077338,0.8370197278154536
24.84061061061061,0.7278182486461777,0.6332043436462745,0.8365694398304779
24.943683683683684,0.7275045267966559,0.6329982103123076,0.8361205891064042
25.046756756756757,0.7271909401751246,0.6327912376083522,0.8356731763091688
25.14982982982983,0.7268774887232943,0.6325834243647537,0.8352272020773511
25.252902902902903,0.7265641723829,0.6323747694399615,0.8347826670218975
25.355975975975976,0.7262509910957041,0.6321652717208088,0.8343395717258456
25.45904904904905,0.7259379448034914,0.6319549301227777,0.8338979167440516
25.562122122122123,0.7256250334480742,0.6317437435902735,0.8334577026029218
25.665195195195196,0.7253122569712874,0.63153171109688655,0.8330189298001452
25.76826826826827,0.7249996153149938,0.63131883164566,0.8325815988044308
25.871341341341342,0.7246871084210793,0.631105104269346,0.8321457100552463
25.974414414414415,0.7243747362314547,0.6308905280306611,0.8317112639625622
26.07748748748749,0.7240624986880576,0.6306751020225461,0.8312782609065982
26.18056056056056,0.7237503957328483,0.6304588253684067,0.8308467012375711
26.283633633633634,0.7234384273078147,0.6302416972223686,0.8304165852754514
26.386706706706708,0.723126593354967,0.6300237167695126,0.8299879133097167
26.48977977977978,0.7228148938163427,0.6298048832261196,0.8295606855991156
26.592852852852854,0.7225033286340032,0.6295851958399019,0.8291349023714296
26.695925925925927,0.7221918977500343,0.6293646538902337,0.8287105638232434
26.798998998999,0.7218806011065484,0.6291432566883833,0.8282876701197164
26.902072072072073,0.721569438645681,0.6289210035777301,0.8278662213943585
27.005145145145146,0.7212584103095945,0.6286978939339886,0.8274462177488131
27.10821821821822,0.7209475160404744,0.6284739271654189,0.8270276592526391
27.211291291291293,0.7206367557805317,0.6282491027130392,0.8266105459431026
27.314364364364366,0.7203261294720036,0.6280234200508336,0.8261948778249689
