dose,RR,lb,ub
0,1,1,1
0.10307307307307308,0.9961277827565557,0.9922014689743466,1.0000696336452883
0.20614614614614615,0.9922728583075532,0.9844685821101743,1.0001390021237384
0.30921921921921924,0.9884374317479018,0.976805541738601,1.000207835370616
0.4122922922922923,0.9846236732477837,0.9692164066851584,1.000275863298388
0.5153653653653654,0.9808337185232417,0.9617050956670391,1.0003428158242855
0.6184384384384385,0.9770696693535388,0.9542753908490961,1.0004084228989607
0.7215115115115115,0.9733335941439447,0.9469309415474579,1.000472414536355
0.8245845845845846,0.969627528532647,0.9396752680701018,1.0005345208449072
0.9276576576576577,0.965953476040513,0.9325117656842167,1.000594472060228
1.0307307307307307,0.9623134087624761,0.9254437087006897,1.0006519985793774
1.1338038038038039,0.9587092680993559,0.9184742546665637,1.0007068309968845
1.236876876876877,0.9551429655289687,0.9116064486568276,1.0007587001426594
1.33994994994995,0.9516163834154328,0.9048432276574299,1.0008073371219557
1.443023023023023,0.9481313758556165,0.8981874250319362,1.0008524733575521
1.546096096096096,0.944689769561735,0.8916417750647814,1.000893840634334
1.6491691691691692,0.9412933647791474,0.8852089175746065,1.0009311711464688
1.7522422422422423,0.9379439362384652,0.8788914025917054,1.0009641975473895
1.8553153153153155,0.9346432341411375,0.8726916950941442,1.0009926530028082
1.9583883883883884,0.9313929851777364,0.8666121797976531,1.0010162712470156
2.0614614614614615,0.9281948935782273,0.8606551659949239,1.0010347866427354
2.1645345345345346,0.9250506421935683,0.8548228924404812,1.0010479342448286
2.2676076076076077,0.9219618723651426,0.8491174908799808,1.0010554525430044
2.370680680680681,0.9189292277652633,0.8435391323181535,1.0010572044484276
2.473753753753754,0.9159519817349719,0.8380853392605188,1.001053226374873
2.576826826826827,0.9130293190946458,0.8327535027007679,1.0010435679019616
2.6798998998999,0.9101604386317281,0.8275410810621534,1.0010282788463556
2.782972972972973,0.9073445527780752,0.8224455981558935,1.001007409246289
2.886046046046046,0.9045808872946125,0.8174646412030777,1.0009810093491633
2.989119119119119,0.9018686809631115,0.8125958589184316,1.0009491296014448
3.092192192192192,0.899207185284902,0.807836959654178,1.00091182064031
3.1952652652652653,0.8965956641863398,0.803185709602177,1.0008691332866377
3.2983383383383384,0.8940333937308558,0.798639931052504,1.000821118539043
3.4014114114114116,0.8915196618374152,0.794197500706639,1.0007678275687315
3.5044844844844847,0.889053768005227,0.7898563480434554,1.0007093117150025
3.607557557557558,0.8866350230445369,0.7856144537362427,1.0006456224812712
3.710630630630631,0.8842627488133549,0.7814698481190308,1.0005768115315063
3.813703703703704,0.8819362779599613,0.7774206097005376,1.0005029306870101
3.9167767767767767,0.8796549536710487,0.7734648637241099,1.0004240319234745
4.01984984984985,0.8774181294253534,0.769600780772076,1.0003401673682653
4.122922922922923,0.8752251687526416,0.7658265754129856,1.0002513892978975
4.225995995995996,0.8730754449979129,0.7621405048902581,1.0001577501356693
4.329069069069069,0.8709683410906923,0.7585408678508179,1.000059302449428
4.432142142142142,0.868903249319282,0.755026003112337,0.9999560989494479
4.535215215215215,0.8668795711098509,0.7515942884677638,0.9998481924864048
4.6382882882882885,0.8648967168102419,0.748244139525853,0.9997356360494284
4.741361361361362,0.8629541054783793,0.7449740085864696,0.9996184827642254
4.844434434434435,0.8610511646751633,0.7417823835494728,0.9994967858912591
4.947507507507508,0.8591873302617443,0.7386677868560397,0.9993705988239789
5.050580580580581,0.8573620462010648,0.7356287744613195,0.9992399750870917
5.153653653653654,0.8555747643635707,0.7326639348373595,0.9991049683348676
5.256726726726727,0.8538249443369874,0.7297718880052749,0.9989656323494748
5.3597997997998,0.8521120532400632,0.7269512845956766,0.9988220210393375
5.4628728728728735,0.8504355655401872,0.7242008049364046,0.9986741884375135
5.565945945945946,0.848794962874785,0.7215191581666518,0.9985221887000845
5.669019019019019,0.8471897338764064,0.7189050813765936,0.9983660761045562
5.772092092092092,0.8456193740014154,0.7163573387716741,0.9982059050482652
5.875165165165165,0.8440833853621976,0.7138747208607289,0.998041730046786
5.978238238238238,0.8425812765628041,0.7114560436671525,0.9978736057323372
6.081311311311311,0.8411125625379503,0.7091001479623547,0.9977015868521806
6.184384384384384,0.8396767643952926,0.7068058985207666,0.9975257282670124
6.2874574574574575,0.8382734092609075,0.7045721833956957,0.9973460849493393
6.390530530530531,0.8369020301278999,0.7023979132153468,0.9971627119818397
6.493603603603604,0.8355621657080674,0.7002820204983534,0.9969756645557024
6.596676676676677,0.8342533602865558,0.6982234589881892,0.9967849979689423
6.69974974974975,0.8329751635794332,0.6962212030058504,0.996590767624687
6.802822822822823,0.8317271305941215,0.694274246820225,0.9963930290294313
6.905895895895896,0.8305088214926208,0.6923816040355799,0.9961918377912558
7.008968968968969,0.8293198014574641,0.6905423069956287,0.9959872496180042
7.1120420420420425,0.8281596405603445,0.6887554062036496,0.9957793203154167
7.215115115115116,0.8270279136333557,0.6870199697581556,0.995568105785213
7.318188188188189,0.8259242001427897,0.6853350828036239,0.9953536620231226
7.421261261261262,0.8248480840654379,0.6836998469958244,0.995136045116855
7.524334334334335,0.8237991537673419,0.6821133799812911,0.9949153112440082
7.627407407407408,0.822777001884943,0.6805748148905035,0.9946915166699061
7.73048048048048,0.8217812252085807,0.6790832998443644,0.9944647177453636
7.833553553553553,0.8208114245682914,0.6776379974735665,0.9942349709043714
7.9366266266266265,0.8198672047218611,0.6762380844504641,0.9940023326616958
8.0396996996997,0.818948174245087,0.674882751033079,0.9937668596103867
8.142772772772773,0.8180539454242021,0.6735712006208782,0.993528608419189
8.245845845845846,0.8171841341504217,0.6723026493219807,0.9932876358298492
8.348918918918919,0.816338359816572,0.6710763255314661,0.9930439986543136
8.451991991991992,0.8155162452157559,0.6698914695204575,0.9927977537718067
8.555065065065065,0.814717416442023,0.6687473330356817,0.9925489581257873
8.658138138138138,0.8139415027930014,0.6676431789092043,0.9922976687207731
8.761211211211211,0.813188136674458,0.6665782806780636,0.9920439426190245
8.864284284284285,0.8124569535067511,0.6655519222135259,0.9917878369370837
8.967357357357358,0.81174759163314,0.6645633973597048,0.9915294088421562
9.07043043043043,0.8110596922299214,0.6636120095812925,0.9912687155483314
9.173503503503504,0.8103928992183571,0.6626970716201624,0.9910058143126299
9.276576576576577,0.8097468591783663,0.6618179051606153,0.9907407624308697
9.37964964964965,0.8091212212639477,0.6609738405030415,0.9904736172333429
9.482722722722723,0.8085156371203086,0.6601642162457977,0.9902044360802926
9.585795795795796,0.8079297608026662,0.6593883789750818,0.9899332763571812
9.68886886886887,0.8073632486967017,0.6586456829626266,0.9896601954697382
9.791941941941943,0.8068157594406339,0.6579354898710122,0.9893852508387796
9.895015015015016,0.8062869538488935,0.6572571684664312,0.9891084998947878
9.998088088088089,0.8057764948373692,0.6566100943387277,0.988830000072239
10.101161161161162,0.8052840473502058,0.6559936496285537,0.9885498088036702
10.204234234234235,0.8048092782881291,0.655407222761486,0.9882679835134728
10.307307307307308,0.8043518564382774,0.6548502081889547,0.9879845816114011
10.410380380380381,0.8039114524055201,0.6543220061358461,0.9876996604857848
10.513453453453455,0.8034877385452384,0.6538220223546405,0.9874132774964326
10.616526526526528,0.8030803888975557,0.6533496678859638,0.987125489967215
10.7195995995996,0.8026890791229936,0.6529043588254274,0.9868363551783148
10.822672672672674,0.8023134864395375,0.652485516096642,0.9865459303581293
10.925745745745747,0.8019532895610961,0.6520925652302978,0.9862542726748174
11.028818818818818,0.8016081686373357,0.6517249361492062,0.9859614392274713
11.131891891891891,0.8012778051948762,0.651382062959208,0.9856674870369059
11.234964964964965,0.800961882079831,0.6510633837458487,0.985372473036049
11.338038038038038,0.8006600834016788,0.6507683403767449,0.9850764540599205
11.44111111111111,0.8003720944784516,0.6504963783095473,0.9847794868351867
11.544184184184184,0.8000976017832274,0.6502469464054336,0.9844816279692763
11.647257257257257,0.799836292891913,0.6500194967480507,0.9841829339390452
11.75033033033033,0.7995878564323051,0.6498134844678402,0.983883461078977
11.853403403403403,0.7993519820344217,0.6496283675716896,0.9835832655689034
11.956476476476476,0.7991283602820853,0.6494636067778349,0.9832824034212366
12.05954954954955,0.7989166826657578,0.6493186653559765,0.9829809304676942
12.162622622622623,0.7987166415366054,0.6491930089725396,0.9826789023455101
12.265695695695696,0.7985279300617955,0.649086105541044,0.9823763744831154
12.368768768768769,0.7983502421810065,0.648997425077527,0.9820734020852772
12.471841841841842,0.7981832725641511,0.6489264395609879,0.9817700401176855
12.574914914914915,0.798026716570297,0.6488726227988053,0.9814663432909774
12.677987987987988,0.7978802702077831,0.6488354502970983,0.9811623660441845
12.781061061061061,0.7977436300955224,0.6488143991359967,0.9808581625275984
12.884134134134134,0.797616493425482,0.6488089478497839,0.9805537865850411
12.987207207207208,0.7974985579263403,0.6488185763118945,0.9802492917355342
13.09028028028028,0.797389521828308,0.648842765624731,0.9799447311543591
13.193353353353354,0.7972890838291121,0.6488809980142747,0.9796401576535009
13.296426426426427,0.7971969430611379,0.6489327567294799,0.9793356236614713
13.3994994994995,0.7971127990597193,0.6489975259464118,0.9790311812025073
13.502572572572573,0.7970363517325822,0.6490747906771285,0.9787268818751391
13.605645645645646,0.7969673013304229,0.6491640366832647,0.9784227768301312
13.70871871871872,0.7969053484186328,0.6492647503943237,0.9781189167477936
13.811791791791793,0.796850193850156,0.649376418830643,0.977815351814663
13.914864864864866,0.7968015387394779,0.6494985295310205,0.9775121316995633
14.017937937937939,0.7967590844377453,0.6496305704849895,0.9772093055290455
14.121011011011012,0.7967225325090123,0.64977203006972,0.9769069218622171
14.224084084084085,0.7966915847076117,0.6499223969915362,0.9766050286649706
14.327157157157158,0.796665942956645,0.6500811602320188,0.9763036732836241
14.430230230230231,0.7966453093275964,0.6502478089986949,0.976002902417985
14.533303303303304,0.7966293860210617,0.6504218326802738,0.9757027620938602
14.636376376376377,0.7966178753485982,0.6506027208064329,0.9754032976350259
14.73944944944945,0.7966104797156836,0.6507899630121036,0.9751045536346867
14.842522522522524,0.7966069016057937,0.6509830490062594,0.9748065739264448
14.945595595595597,0.7966068435655941,0.6511814685451723,0.974509401554811
15.04866866866867,0.7966100081912396,0.6513847114101009,0.9742130787452905
15.151741741741743,0.796616098115787,0.6515922673893914,0.9739176468740782
15.254814814814816,0.7966248159977215,0.6518036262649634,0.9736231464374046
15.35788788788789,0.7966358645105922,0.6520182778031338,0.9733296170205744
15.46096096096096,0.7966489463337545,0.6522357117497435,0.9730370972667473
15.564034034034034,0.7966637641442268,0.6524554178295541,0.9727456248455103
15.667107107107107,0.7966800206096551,0.6526768857498637,0.9724552364212985
15.77018018018018,0.796697418382388,0.652899605208294,0.9721659676217224
15.873253253253253,0.7967156600946631,0.6531230659047044,0.9718778530058689
15.976326326326326,0.7967344483548985,0.6533467575571599,0.971590926032641
16.0793993993994,0.7967534859635971,0.6535701702933205,0.9713052190099806
16.182472472472472,0.7967725529986845,0.6537929256967656,0.9710207563587012
16.285545545545546,0.7967916204900634,0.6540149699756423,0.9707375452076059
16.38861861861862,0.7968106884377449,0.6542362985724474,0.9704555901193642
16.491691691691692,0.7968297568417388,0.6544569069172487,0.9701748956692543
16.594764764764765,0.7968488257020575,0.6546767904278795,0.9698954664449759
16.697837837837838,0.796867895018712,0.6548959445101239,0.9696173070464581
16.80091091091091,0.796886964791712,0.6551143645579104,0.9693404220856651
16.903983983983984,0.7969060350210682,0.655332045953517,0.9690648161863962
17.007057057057057,0.7969251057067931,0.6555489840677761,0.968790493984081
17.11013013013013,0.7969441768488973,0.6557651742602767,0.968517460125572
17.213203203203204,0.79696324844739,0.6559806118795782,0.9682457192689318
17.316276276276277,0.7969823205022841,0.6561952922634373,0.9679752760832131
17.41934934934935,0.79700139301359,0.656409210739018,0.9677061352482403
17.522422422422423,0.797020465981319,0.656622362623126,0.9674383014543798
17.625495495495496,0.7970395394054801,0.6568347432224318,0.9671717794023116
17.72856856856857,0.797058613286086,0.6570463478337188,0.9669065738027915
17.831641641641642,0.7970776876231482,0.6572571717441145,0.9666426893764118
17.934714714714715,0.7970967624166756,0.6574672102313324,0.9663801308533563
18.03778778778779,0.7971158376666797,0.6576764585639319,0.9661189029731505
18.14086086086086,0.7971349133731729,0.6578849120015686,0.9658590104844064
18.243933933933935,0.7971539895361646,0.6580925657952478,0.965600458144565
18.347007007007008,0.7971730661556669,0.6582994151875968,0.9653432507196316
18.45008008008008,0.7971921432316885,0.6585054554131243,0.9650873929839076
18.553153153153154,0.7972112207642439,0.658710681698509,0.9648328897197154
18.656226226226227,0.7972302987533403,0.6589150892628555,0.9645797457171227
18.7592992992993,0.7972493771989915,0.6591186733180012,0.9643279657736573
18.862372372372374,0.7972684561012063,0.6593214290687841,0.9640775546940215
18.965445445445447,0.7972875354599979,0.6595233517133526,0.963828517289796
19.06851851851852,0.7973066152753729,0.6597244364434435,0.963580858379146
19.171591591591593,0.797325695547349,0.6599246784447139,0.9633345827865154
19.274664664664666,0.7973447762759307,0.6601240728970101,0.9630896953423217
19.37773773773774,0.7973638574611338,0.6603226149747184,0.9628462008826423
19.480810810810812,0.7973829391029639,0.6605202998470477,0.9626041042488981
19.583883883883885,0.7974020212014384,0.6607171226783896,0.9623634102875299
19.68695695695696,0.7974211037565629,0.6609130786286033,0.9621241238496733
19.79003003003003,0.797440186768351,0.6611081628533836,0.9618862497908242
19.893103103103105,0.7974592702368111,0.6613023705045742,0.9616497929705041
19.996176176176178,0.7974783541619592,0.6614956967305312,0.9614147582519172
20.09924924924925,0.7974974385438005,0.6616881366764408,0.9611811505016024
20.202322322322324,0.7975165233823501,0.6618796854847034,0.9609489745890831
20.305395395395397,0.797535608677615,0.6620703382952625,0.9607182353865092
20.40846846846847,0.7975546944296102,0.6622600902459921,0.9604889377682964
20.511541541541543,0.797573780638344,0.6624489364730385,0.9602610866107587
20.614614614614617,0.7975928673038296,0.662636872111212,0.960034686791738
20.71768768768769,0.7976119544260742,0.6628238922943465,0.9598097431902248
20.820760760760763,0.7976310420050924,0.6630099921556992,0.9595862606859816
20.923833833833836,0.7976501300408926,0.6631951668283194,0.9593642441591512
21.02690690690691,0.7976692185334887,0.6633794114454543,0.9591436984898705
21.129979979979982,0.7976883074828873,0.6635627211409267,0.9589246285578713
21.233053053053055,0.7977073968891044,0.663745091049562,0.9587070392420811
21.33612612612613,0.797726486752145,0.6639265163075614,0.9584909354202166
21.4391991991992,0.797745577072028,0.6641069920529511,0.9582763219683753
21.542272272272275,0.7977646678487557,0.6642865134259499,0.9580632037606166
21.645345345345348,0.7977837590823456,0.6644650755694383,0.957851585668548
21.74841841841842,0.7978028507728029,0.6646426736293405,0.9576414725608938
21.851491491491494,0.7978219429201465,0.6648193027550938,0.9574328693030725
21.954564564564567,0.7978410355243784,0.6649949581000341,0.9572257807567575
22.057637637637637,0.7978601285855147,0.665169634821884,0.9570202117794429
22.16071071071071,0.7978792221035668,0.6653433280831643,0.956816167223999
22.263783783783783,0.7978983160785421,0.6655160330516436,0.9566136519382247
22.366856856856856,0.7979174105104561,0.6656877449008091,0.9564126707643974
22.46992992992993,0.7979365053993147,0.6658584588102942,0.9562132285388146
22.573003003003002,0.7979556007451329,0.6660281699663682,0.9560153300913361
22.676076076076075,0.7979746965479185,0.6661968735623774,0.9558189802449156
22.77914914914915,0.7979937928076861,0.6663645647992332,0.955624183815137
22.88222222222222,0.7980128895244419,0.6665312388858634,0.9554309456097358
22.985295295295295,0.7980319866982026,0.6666968910397185,0.9552392704281256
23.088368368368368,0.798051084328972,0.6668615164872161,0.9550491630609144
23.19144144144144,0.7980701824167696,0.6670251104642727,0.9548606282894211
23.294514514514514,0.7980892809615983,0.6671876682167387,0.9546736708851853
23.397587587587587,0.7981083799634751,0.6673491850009435,0.9544882956094747
23.50066066066066,0.7981274794224047,0.667509656084149,0.9543045072127874
23.603733733733733,0.7981465793384078,0.6676690767450956,0.9541223104343521
23.706806806806807,0.7981656797114838,0.667827442274445,0.9539417100016239
23.80987987987988,0.7981847805416524,0.6679847479753585,0.9537627106297764
23.912952952952953,0.7982038818289169,0.6681409891639443,0.9535853170211903
24.016026026026026,0.798222983573298,0.668296161169832,0.953409533864939
24.1190990990991,0.7982420857747967,0.6684502593366249,0.953235365836271
24.222172172172172,0.7982611884334325,0.6686032790224881,0.9530628175960884
24.325245245245245,0.7982802915492082,0.6687552156006111,0.9528918937904229
24.42831831831832,0.7982993951221435,0.6689060644597931,0.9527225990499094
24.53139139139139,0.7983184991522405,0.6690558210049142,0.9525549379892546
24.634464464464465,0.7983376036395164,0.6692044806575241,0.9523889152067047
24.737537537537538,0.7983567085839784,0.6693520388563345,0.9522245352835106
24.84061061061061,0.7983758139856413,0.6694984910577871,0.9520618027833887
24.943683683683684,0.7983949198445117,0.6696438327365691,0.95190072225198
25.046756756756757,0.7984140261606046,0.6697880593861817,0.9517412982163088
25.14982982982983,0.7984331329339266,0.6699311665194585,0.9515835351842359
25.252902902902903,0.7984522401644941,0.6700731496691446,0.9514274376439109
25.355975975975976,0.7984713478523103,0.6702140043884048,0.9512730100632247
25.45904904904905,0.7984904559973965,0.6703537262514306,0.9511202568892555
25.562122122122123,0.7985095645997545,0.6704923108539267,0.9509691825477186
25.665195195195196,0.7985286736594002,0.670629753813726,0.9508197914424087
25.76826826826827,0.7985477831763416,0.670766050771306,0.9506720879546458
25.871341341341342,0.7985668931505929,0.670901197390372,0.9505260764427161
25.974414414414415,0.7985860035821589,0.6710351893583887,0.9503817612413137
26.07748748748749,0.7986051144710641,0.6711680223871894,0.9502391466609815
26.18056056056056,0.7986242258173014,0.671299692213452,0.9500982369875476
26.283633633633634,0.7986433376208938,0.6714301945993628,0.9499590364815658
26.386706706706708,0.7986624498818489,0.6715595253331053,0.9498215493777505
26.48977977977978,0.7986815626001789,0.6716876802294519,0.9496857798844193
26.592852852852854,0.7987006757758924,0.6718146551303215,0.9495517321829192
26.695925925925927,0.7987197894090012,0.6719404459053461,0.9494194104270746
26.798998998999,0.7987389034995147,0.6720650484524328,0.9492888187426133
26.902072072072073,0.7987580180474527,0.672188458698344,0.94915996122661
27.005145145145146,0.7987771330528112,0.6723106725992067,0.9490328419469168
27.10821821821822,0.798796248515614,0.6724316861411617,0.948907464941605
27.211291291291293,0.7988153644358633,0.6725514953408419,0.9487838342183981
27.314364364364366,0.7988344808135792,0.6726700962460027,0.9486619537541137
27.41743743743744,0.798853597648761,0.67278748493602,0.9485418274940953
